3904.3 3939.2 3976 3982.1 3949.4 3983 3968.5 3946.9 3955.3 3961.1 3941.7 3929.5 3936.5 3913.6 3940.6 4048.5 4125.9 4156.5 4097.9 3967.9 3856 3860.8 3968.1 4022.4 4050.5 4011.5 3967.3 3869.4 3849.3 3935.2 3914.7 3870.1 3790.3 3707.4 3811.8 3875.6 3890.8 3939 3895.3 3880.7 3876 3931.5 3945.5 3884.1 3852.9 3844 3831.2 3846.7 3826.6 3790.9 3777.3 3838.3 3896.7 3965.7 4003.7 3996.2 3975.4 3981.9 4032.3 4051.8 3977.1 3929.3 3936.4 4037.8 4122.7 4117.2 3987.5 3976.3 4161.1 4260.5 4351.5 4490.2 4571.1 4561.4 4558.9 4624.4 4652 4649.9 4810.5 4980.1 4994.9 5024.3 5166 5386 5473.7 5530.5 5635.5 5802.5 5900.6 5879.7 5786.9 5708 5774.1 5853.9 5806.6 5733.3 5631.4 5615.3 5721.9 5701.4 5480.9 5220.2 5129.1 5008.8 4738.3 4527.2 4335.7 4172.9 4107.6 4068.2 4022.1 3870.8 3794.2 3702.7 3555.8 3494.6 3551.6 3560.8 3534.5 3614.1 3641.3 3659 3751.6 3755.9 3666 3609.8 3607.1 3732.9 3883.6 3953.4 3918 3886.9 3912.3 3961.6 3988.8 3986.7 3958.2 3966.2 4001.9 4072.3 4087.9 4025.4 3996.5 4018.3 4083.6 4105.5 4080.4 3985.8 3930.3 4006.5 4078.1 3978.9 3916.2 3929.2 4051.1 4056.7 4119.7 4165.3 4162.5 4167.8 4155.5 4121.6 4107.7 4116.2 4141.7 4076.5 4081.3 4118.1 4033.3 4048.4 4111.7 4245.9 4259.6 4159.4 4160.2 4166 4063 3971.6 3971.5 4008.2 4033.2 3994.2 3844.3 3835.9 3940.2 3913.4 3885 3780.4 3748.7 3763.2 3805.3 3895.6 4039.2 4193.2 4155.7 4080.2 4164.9 4193.5 4136.7 4070.6 4052.5 4080.3 4086.6 4151.6 4176.8 4224.9 4203.2 4161.7 4184.1 4194.5 4180.1 4156.9 4180.6 4264.7 4336.3 4309.6 4166.7 4072.5 4069.1 4079.1 4056.2 3984.1 3935 3964.6 4015.8 4103.5 4190.1 4206.8 4192.5 4182.5 4226.1 4214.7 4204.3 4148.1 4053.1 4033.3 4023.6 4045.4 4068.7 4083.5 4086.7 4078 4153.5 4213 4193.3 4125.2 4119.7 4168.4 4177.3 4108.1 4036.3 4019.4 4053.2 4118 4157.9 4131.1 4158.1 4179.9 4171 4204.7 4249.9 4288.3 4295.2 4201.9 4158 4145.6 4114.3 4100.2 4129.5 4167.3 4194.5 4151.7 4074.8 4089.9 4165.2 4152.4 4221.4 4244.8 4219.1 4221.6 4256 4399.4 4339 4175.2 4025.9 4046.5 4157.2 4179 4134.9 4094.7 4064 4130.3 4185.7 4231.5 4296.3 4285.7 4186.4 4093.1 4139.2 4249.4 4256.2 4252.4 4161.9 4133.4 4175.2 4243.1 4263.5 4238.2 4279.2 4327 4357.1 4382.4 4423.8 4427.5 4472.4 4525.5 4450.9 4292.9 4189.5 4202.4 4276.7 4290.2 4253 4231.8 4267.6 4405.8 4448.2 4391 4332.8 4269.2 4256.4 4315.8 4359.3 4350.5 4295.9 4257.9 4246.3 4248.8 4350.3 4395.3 4387.9 4357.5 4294.9 4335.4 4424.4 4545.7 4439.9 4359 4285 4228.6 4225.6 4237 4277 4256.9 4203.2 4165.1 4128.2 4146.5 4166.9 4163.6 4204.4 4214.9 4261.4 4281.2 4250.1 4232 4239.5 4255.1 4253.1 4259.7 4215.3 4157.4 4175.1 4237.1 4212.3 4155.8 4200 4293.8 4185.8 4201.8 4311.2 4224.2 4199.9 4204.6 4233.6 4191.7 4121.3 4135.4 4171 4159.3 4060.4 4058.9 4142.6 4051.1 3982.7 3983.7 4045 4094.3 4089.1 4131.9 4119.8 4121.9 4181.6 4125.8 4005.1 3889.6 3952 4006.4 3975.3 3906.5 3848 3986.8 4085 4044.3 3944.7 3963.4 4023.8 3997 4129.7 4231.7 4183 4078.6 3902.7 3902 3938 3915 3899.6 3944.8 4030.9 4043.1 4082 4121.3 4169.6 4325.1 4359.8 4238.9 4123.9 3957.7 3929.2 3942.9 3923.2 3967.1 4009.8 4037.3 3977.3 3917.9 3946.8 4072.1 4192.7 4182.4 4094.9 4025.4 4007.2 4030.4 4016 4003 3958.6 3972.8 4112.4 4094.5 4018.9 3988.1 4019.8 4004.3 4022.5 4047.7 4004 4027.6 4137 4158.9 4111.1 4079 4118.4 4110.3 4000.1 3920.6 3914.6 3978.2 4009.1 3926.8 3979.7 4101.8 4162.9 4120.4 4033.7 3979.5 4059.8 4079.2 4059.1 4060.6 3963.6 3896.4 3940.4 3970.1 3990.7 3976.5 3936.2 3968.5 4014.2 4047.1 4034.9 3990.8 4010.8 4039.9 4079 4108.7 4146.3 4154.5 4087.5 4046.5 3973.8 3973.8 3977.1 3899 3976.5 4033.3 4056.1 4044.7 4078.8 4053.9 4072.7 4177.2 4136.9 4174.5 4240.2 4201.2 4080 3922.5 3934.1 3993.6 3974.9 4024 4166.7 4229.1 4245 4153.9 4108.2 4089.9 4097.6 4212.4 4333.6 4236.4 4031.9 4010.1 4075.2 4076.6 4059.9 3935.9 3951.2 4015.5 4078.4 4139.8 4129.9 4079.6 4095.5 4174.6 4205.7 4079.3 4034.6 3964.6 3865.6 3913.6 3996.9 4045.6 4019.1 3990.7 4016.2 4057.2 4089.9 4088.3 4073.6 4107.6 4105.5 4137.8 4107.8 4080 4051.7 4032.5 4073.1 4095.8 4083 4057.3 4013.9 4016.2 4059.5 4106.8 4136.4 4123.6 4071 4105.2 4143.2 4075.3 4020.2 4048.1 4024.5 3948.7 3943.5 4016.7 4041.4 4018.5 4080.4 4104.8 4084.2 4031 3987.5 3988 4035.1 4074.8 4032.5 4015.2 4017.4 4053.4 4103.1 4066.3 3987.2 3970.4 3949 3931.8 3935.7 4016.5 4097.2 4160.1 4177.9 4111.7 4066.6 4040.8 3994.9 4032.6 4082.3 3975.1 3974 3927.4 3905.3 3937.7 4002.4 4118.6 4135.6 4077 4054.2 4019.8 3937.7 3926.4 3959.7 4003.4 3988.9 3952.5 3909.6 3886 3928.1 3947.9 3988.1 3985.6 3966.3 4027.3 4061.3 4026.4 4009.2 4019 4027.3 4074.8 4076.4 4139.2 4132.8 3999.1 3954.1 3964.3 3961.3 3965.8 4038.2 4032.2 4041.5 4090.3 4049.5 4050 4094.4 4056.9 4041.3 4020.9 4045 4053.7 4053.5 4059.3 3994.3 3965.9 4008.1 4093 4186.5 4199.2 4271.9 4337.4 4226.8 4110.3 4015.4 3967.7 3998.7 4033.6 4011.5 3959.2 3959.4 3945.7 3989.1 3997.9 3977.9 4060.4 4075.9 4068.8 4143.9 4122.2 4118.7 4064.5 4076 4115.1 4075.9 4003.2 4008 4051.5 3956.6 3886.9 3888.7 3896.3 3948 4034.7 4146.5 4148.7 4081.6 4039 4018.1 4041.6 4006.9 3969.3 3981.7 3955.6 3943.1 3964.6 4025.9 4077.2 4049.6 4014.8 3966.2 3984.7 4006.6 3933.2 3952.4 3990.9 4040.8 4051.6 4022.6 4018.5 4011.3 4004.2 4011.1 4023.3 4051.6 4096.1 4107.5 4011.8 4028.3 4069.1 4038.1 4031.9 4083.7 4036 4093.8 4123.7 4039.9 3879.8 3897.9 4050.5 4188.2 4146.2 4042.9 4032.1 4068.1 4202.4 4209.2 4119.4 4084.9 4093.4 4118.8 4176.4 4168.7 4120.5 4091.6 4064.8 4082.1 4170.5 4117.2 4006.6 3966.5 4036.9 4115.3 4083.8 4037.2 4057 4058.5 4080.1 4127.2 4061.6 4019.5 4044.6 4013.1 4043.3 4091.8 4134.6 4139.7 4096.4 4140.6 4201.2 4209.5 4157.1 4091 4083.8 4096.1 4131.8 4115.5 4128.5 4107.1 4053.2 4032.5 4002.6 4015.3 4013.1 4029.5 4182.9 4298.8 4336.7 4304.4 4190 4164.9 4119.3 4057.9 4029 4020.8 3980 3985.6 4018.4 4035.5 4119.9 4198.2 4137.2 4122 4042.7 4027 4144.3 4181.3 4013.6 3941.9 3969.7 4022.3 4017.2 3987.6 3939.1 4005.4 4053 4042.3 4025.2 4001.8 4044.1 3982.8 3997.1 4005.1 4014.8 4053 4081.1 4091.2 4098.4 4070.4 4066.2 4040.8 4020.7 4023.9 4022.9 3940.5 3904.4 3873.7 3863.2 3916.9 3968.3 3961.6 3950.9 3993.9 4046.8 4047 3987.4 3981.1 3896.7 3865.3 3962.2 4027.3 3947.3 3920.6 3925.6 3949.9 3955.5 3990.3 3988.4 4011.5 4062.8 4170.2 4193.4 4119.8 4106.5 4064.4 4024.9 4004.8 3978.1 4018.4 4016.6 4017.5 4021.4 3991.6 4013 4045.7 4055.7 4075.8 4120.2 4145.6 4142.4 4172.1 4080.6 3973.5 3929.9 3989.7 4107.7 4123.8 4114.2 4149.9 4206.6 4279.5 4333.2 4371.7 4347.3 4324.5 4369.9 4372.2 4423 4702.8 4788.4 4806.5 4797.7 4785.9 4910.5 5006.4 5120.3 5299.7 5531.7 5619.7 5663.7 5707.2 5766 5837.6 5878 5918.5 5988.8 5879.5 5770.2 5770.7 5825.2 5898.1 5945.6 5951.4 5756.4 5571.2 5395.1 5195.8 4956.5 4769.6 4714.3 4497 4264.6 4056.3 3882.5 3736.6 3593.3 3622.3 3622.6 3471.3 3398.6 3424.7 3577.8 3731 3689.8 3669.3 3757.6 3881.9 3929.5 3966.4 4051.4 3977.7 3975 3976.5 4001.5 4016.7 4004.3 4066.1 4058.8 4040.1 4104 4128.7 4070.4 4021.7 4059.4 4119.3 4134 4175.9 4105.9 4004.6 3980.2 4015.2 4029.8 4005.3 4043.4 4022.6 3988.8 4073.5 4201.9 4217.1 4053 3963.4 4069.2 4050.3 3981.7 3940.2 3972 4057.3 4072.7 4099.3 4064.9 4049 4116 4187.1 4233.1 4245.5 4215.7 4169.8 4201.4 4181.4 4022.8 4006.5 4055.9 4018.9 4004.1 4040.4 4068.9 4083.4 4091.9 4120.9 4166.3 4209.9 4236.3 4261.2 4344.3 4354 4285.5 4150.7 4056.8 4038.3 4066.5 4139 4154.4 4116.8 4095.9 4100.9 4142.9 4169.2 4143.5 4169.8 4164.2 4120 4123.7 4169.5 4187 4157 4113.6 4058.9 4085.2 4117.4 4177.5 4256 4288.9 4197.9 4081.7 4137.2 4159.6 4137.4 4143.5 4141.1 4205.4 4214.5 4164.4 4154.4 4180.7 4190.6 4242.6 4202.5 4212.6 4125.1 4120.4 4103.9 4092.8 4129.7 4070.9 4057.5 4082.4 4098 4123.7 4121.9 4102.2 4052.7 4035.7 4119.4 4207.5 4132 4065.1 4039 4010.2 4040.7 4191.7 4264.6 4253.5 4214.1 4215.1 4200.5 4212.8 4200.2 4140.3 4117.1 4156.1 4223.1 4191.9 4169.9 4137 4206.2 4309.4 4387.2 4316.6 4278.2 4327.8 4256.9 4222.4 4198.9 4204.6 4195.1 4165.2 4210 4223 4213 4188.5 4169.8 4218.7 4271.5 4348.1 4404.5 4336.9 4363.9 4449.3 4453 4422.2 4425.8 4372.3 4344.3 4419.3 4489.3 4438.5 4314.1 4271.3 4300.6 4352.3 4374.5 4329.7 4338.8 4388.2 4414.5 4426.6 4334.1 4258.9 4249.3 4277.4 4375.7 4379.1 4319.5 4315.9 4305.9 4412.4 4508 4443.8 4320.2 4299.8 4300 4302.5 4347.9 4345.5 4402.5 4372.7 4335.5 4354.9 4268.8 4243.6 4158.1 4129.3 4222.1 4272.6 4393.5 4455.4 4362.1 4252.2 4198.8 4264.3 4319.7 4341.2 4331.4 4296.7 4281.1 4294.8 4313 4308.4 4194.2 4163.3 4215.5 4289.7 4186.7 4109.1 4188.9 4310.7 4414 4488.1 4328.4 4214.9 4180.5 4207 4225.9 4228.4 4262.2 4268.1 4311.7 4327.9 4289.6 4296.8 4324.3 4389.8 4489.7 4569.2 4578.8 4374.4 4239 4228.3 4265.1 4219.8 4063.4 4071 4114.1 4087.6 4045 4090.5 4145.4 4178.5 4220.3 4289.3 4285.7 4339 4286.7 4226.7 4095.5 3883.4 3901.1 4007 4053.9 4081.4 4076.1 4087.7 4108.5 4156.8 4183.5 4175.7 4165.9 4178.3 4204.2 4188.4 4157.4 4103.8 4060.2 4123.7 4117.1 4042.3 3964.6 3953.3 3994.4 4012.6 4116.9 4150.2 4070.5 4063.1 4079.4 4130.4 4185.1 4098.4 4019.6 4016.8 4097.3 4213.2 4214.8 4065 4035.2 4002 3932.2 4064.5 4250 4216.5 4211.2 4159.9 4016.7 4008.1 4022.6 4010.8 3991.1 3916.1 3919.5 3928.7 3926.5 3943.8 4078.9 4132.7 4107.7 4183.7 4185.4 4147.8 4109.8 4117.5 4123.4 4182.2 4207.4 4076.1 3993.2 3963.2 3927.3 3916 3928 3926.6 3895.4 3951.7 4048.2 4066.1 4122.7 4116.5 4109 4117.1 4048.6 4092.5 4050.4 4019.7 4062.1 4105.9 4130.5 4096.1 4058.7 4081 4140.6 4165.1 4133.5 4140.9 4137.7 4214.3 4260.7 4185.6 4168.6 4150.7 4106.2 4082.2 4092.8 4080 4090.1 4115.5 4159.1 4192.9 4234.7 4258.1 4193.2 4234.5 4288.2 4304.6 4198.2 4117.4 4066.9 4045.3 4103.8 4140.8 4121 4093.9 4093.1 4161.1 4161.7 4193.7 4173.1 4156.8 4185.8 4129.1 4109.1 4152 4120.2 4075.2 4132.2 4343.5 4456.9 4242.4 3968.9 3843.6 3954.2 4079 4164.2 4223.7 4247.2 4169.6 4101 4090.8 4104.4 4141.3 4118.2 4072.1 4086.8 4152.8 4128.4 4044.9 3975.5 3986.4 3983.7 4110.1 4216.9 4125.1 4018.1 4036 4129.8 4157.8 4156.3 4134.5 4046.6 4047.6 4076.7 4069.5 4006.2 3964.2 4010.7 4011.7 4055.1 4116.6 4127.7 4137.4 4090.1 4099.5 4182.7 4161.3 4095.6 4070.2 4105.5 4120.3 4088.6 4103.3 4111.5 4178.9 4189.9 4217.1 4306.9 4215.7 4128.1 4067.8 4083.3 4107 4110.5 4089.2 4033.2 4077.2 4098.6 4107.4 4107.6 4018.1 3976 3962.8 3998.7 3996.7 3988.1 4031.2 4058.4 4057.6 4086.4 4083.9 4159.7 4167.5 4036.2 3936.9 3972.6 4062.9 4085.7 4106.6 4126 4157.4 4174.5 4194.6 4200.7 4161.1 4133.5 4177.2 4129 4119.7 4138.2 4053.1 4036 4011.5 4001.7 4020.6 3985.3 3993.3 4031.1 4076.4 4086.2 4066.3 4102.7 4127.6 4193.9 4202.4 4143.4 4088.3 4056.2 4026.9 4061.8 4056.9 4095.8 4190.5 4322.2 4264.7 4138.6 4099 4076.4 4115.1 4108.2 4113.6 4130.6 4176.2 4140.4 3998.7 3947.1 3971.3 3995.1 4024.1 4019.1 4037.1 4008.9 4050.4 4116.3 4101.9 4085.6 4100.2 4146.8 4203.3 4241.2 4226.5 4066.6 3997.1 4017.1 4067.6 4080.3 3972.1 3911 3947.6 4056.4 4163.7 4142.1 4069 4007.7 4001 4046.7 4129.2 4156.9 4124.8 4086.6 4008.9 3965.2 3922.8 3904 3960.5 4017.6 4036.7 4082.5 4095.4 4110.2 4087.2 4048.5 4049.4 4008.9 4043.2 4055.4 4034.3 4091.5 4152.3 4161.7 4045.1 3959.9 3943.3 4016.5 4139.5 4172.2 4174.9 4132.8 4127 4102.2 4056.5 4049.9 4052.5 4059.3 4084.1 4032.6 4074.5 4061.4 4073.3 4132.6 4126 4157.4 4206 4289.2 4333.7 4200 4147.1 4087.7 4086.2 4110.6 4183.5 4152.9 4080.6 4081.7 4051.4 4051.9 4086.9 4123.7 4181.2 4162 4119.9 4199.7 4263 4263 4194.3 4154 4109 4097.4 4164.4 4233.2 4207.6 4165.9 4150.5 4159.1 4152.7 4161.9 4152.9 4185.1 4170 4113.1 4181.4 4223 4219.3 4264.7 4183.4 4117.6 4122.9 4119.8 4191.8 4243.6 4242.5 4164.7 4141.9 4113.5 4098.4 4181.7 4153.5 4136.7 4171.3 4196.9 4193.5 4130.9 4045.5 4062.2 4013.6 3969.6 3950.6 3996.1 4008.6 4007 4113.3 4129.8 4089.8 4106.7 4144.1 4148.6 4120.7 4097.3 4002.3 3937.8 3991.3 4032.1 4049.3 4042.7 4019.7 4028.9 4028.2 4025.6 4018.5 4037.7 4104.6 4169.2 4203 4137.6 4092.5 4068.9 4023.7 4012.8 4050 4076.7 4013.3 4025.2 4038.6 4123.3 4276.6 4196.7 4035.8 4071.3 4187.8 4184 4138.3 4075.5 3981.8 3947.8 4022.7 4083.7 4032.9 3973.6 3969.7 4068.3 4101.5 4095.5 4123.6 4154.1 4196.3 4234.1 4163.8 4088.9 3978.9 3991.8 4009 4006.3 4001.7 4036.2 4098.1 4073.5 4020.6 4017 4070.8 4096.7 4089.4 4161.1 4254.9 4290.8 4161.1 3992.3 4001.9 4116.1 4138.8 4071.3 3953.1 3885.1 3879.9 3923.3 3970.8 4072.5 4151.4 4110.8 4027.2 4028.9 4126.7 4227.9 4250.6 4227.7 4167.7 4146.4 4173.1 4243.9 4264.6 4241.5 4322.5 4471.5 4661.9 4802.5 4845.4 4870.3 4965.3 5062.4 5130.5 5184.9 5268.5 5387.5 5539.2 5647.9 5766.8 5860.7 5902.5 5922 5927.2 5943 5983.2 5996.7 5978.1 5998.3 6060.4 5984.2 5814.5 5698 5552 5308.4 5132.7 4891.6 4631 4428.9 4341.1 4203.7 4080.7 4026.4 3941.7 3830.1 3783.9 3709.4 3696.9 3656.1 3683.8 3753.4 3797.5 3824.1 3812.8 3726.4 3647.1 3644 3795.9 3880.8 3862.1 3910.1 3986 4084.7 4135.4 4183.1 4173.6 4196.4 4166.3 4088.5 4066.3 4190.2 4222.4 4100.9 4011.9 4047.4 4132.5 4150.8 4082 4096.1 4135.1 4147.5 4191.4 4151 4119.7 4104.6 4053.3 4089 4146.5 4176.5 4150.9 4131.7 4111.5 4096.5 4156.4 4188.4 4217.1 4245.8 4204 4311.2 4305.6 4232.2 4165.2 4112.2 4014.1 3993.4 4069.8 4136.6 4109.1 4123.7 4130.4 4161.1 4132.1 4199.5 4256.3 4262.2 4177.4 4140.4 4143.7 4161.4 4135.5 4087.2 4057 4026.8 4037 4091.8 4141.4 4117.7 4192 4297 4301.5 4269.1 4241.5 4259.6 4192.5 4133.3 4200.4 4151.4 4116.6 4108.4 4080.7 4079.2 4110 4162.5 4216.6 4218.6 4251.3 4275.9 4228.3 4149.3 4132.1 4183.6 4143.6 4112.1 4076.8 4063 4064.3 4121.3 4118.6 4049.1 4015.4 4076.8 4220.5 4285.3 4172.3 4134.2 4161.4 4243.8 4273.7 4209.7 4188.2 4205.5 4154.8 4245.6 4284.4 4233.2 4213.5 4127.3 4088.7 4144.2 4237.3 4262.3 4244.4 4286 4310.3 4309.8 4283 4282.4 4178.8 4131.6 4193.3 4221.2 4190.8 4156.8 4124.6 4159.2 4254.5 4325.6 4325.9 4263.5 4216.6 4220.2 4201.6 4245.6 4288.7 4321.9 4359.4 4316 4248.1 4203.1 4168.7 4141.4 4189 4275.2 4380.8 4398.2 4327 4327.5 4350.7 4343 4327.2 4331.3 4299.4 4209.8 4219.8 4229.9 4231.3 4255.1 4280.4 4334.5 4385.4 4445 4455.4 4454.5 4415.8 4390.4 4385 4420.6 4420.4 4374.4 4399.5 4400.1 4335.2 4287.2 4343.6 4358.9 4358.1 4300.9 4308.5 4422.9 4461 4390.2 4341.4 4388.5 4319.4 4271.9 4336 4319.6 4274.6 4305.2 4320.2 4344.5 4307.8 4268.8 4288 4355.1 4388.7 4356.1 4327.4 4337.9 4370.7 4362.9 4376.1 4374.2 4370.6 4367.1 4302.1 4250.4 4246.7 4197.3 4252.5 4347.3 4350.6 4355.4 4402.7 4429.5 4444.9 4465.8 4451.1 4434.1 4429.6 4384.7 4411.8 4417.8 4419.7 4464.6 4342.8 4258.2 4268.7 4308.1 4480.1 4509.1 4350.4 4294.7 4339.2 4340.4 4312.2 4254 4242.7 4276.5 4308.4 4329.4 4278.1 4183 4174.7 4270.6 4347.1 4365.3 4347.8 4291.8 4356.4 4327.6 4233.7 4210.3 4228.1 4231.4 4179.6 4167.7 4215.4 4183 4050.7 4017.1 4106 4161.9 4257.9 4262.6 4173.8 4077.4 4045 4082.9 4110.9 4077.2 4042.1 4015.9 4038.8 4101.9 4127.8 4115.4 4062.3 4082 4112.3 4192.8 4254.6 4103.5 4055.8 4149.6 4155.8 4161.7 4107.2 4099.8 4043.8 3975.7 4004.4 4021 4014.7 3977.6 4015.8 4024.2 4030.9 4109.1 4099.7 4068.9 4067.1 4124.7 4236.8 4224.2 4164.1 4147.3 4149.6 4153.3 4134.6 4083.9 4041.1 4162.8 4154.1 4049.2 4071.5 4114.8 4065.2 3964.5 3977.7 4068 4064.9 4093.8 4096 4088 4115.6 4160.3 4212.5 4212 4201.3 4103.8 3966.4 4028.7 4134.6 4157.5 4112.4 4159.8 4304.2 4301.5 4253.7 4140.4 4046.7 4109.2 4138.5 4096.6 4040.7 3988.2 4095.7 4170.8 4210.2 4174.8 4136.4 4143.2 4131.6 4139 4177.5 4191.7 4145.1 4091 4071.5 4084.4 4115.7 4142.7 4155 4184.3 4213.6 4256.2 4235.7 4207.8 4204.8 4202.9 4191 4114.9 4123 4143.7 4085.3 4064.1 4075.3 4061.2 4142.6 4231.3 4271.5 4251.5 4283.8 4256.7 4166.1 4113.1 4125.1 4191.4 4255.9 4230.3 4226.7 4104 4020.2 4008.2 4040.6 4124.1 4138.8 4109.6 4008.4 4101.8 4290.1 4345.1 4283.8 4257 4269.7 4191.5 4098.2 4045.4 4002.2 3985.8 4010.6 4057.6 4097.3 4064.2 4074.2 4141.9 4195.1 4243.2 4225.4 4226 4185.4 4126.3 4139 4048.9 3946.1 3906.8 3944.4 4010.5 4008 4025.9 4056.8 4058.8 4082.2 4130.1 4146.9 4137.3 4156.7 4167.4 4166.1 4225.6 4135 4099.9 4116.8 4091.2 4095.6 4097.4 4118.3 4208.6 4229.8 4172.3 4215.8 4266.2 4272.4 4249.3 4229.6 4241.4 4325.5 4280.1 4171 4064.1 4066.2 4061.1 4146.6 4288.3 4194 4101.5 4045.8 4104.3 4150.8 4127.2 4046.8 4026.4 4053.9 4110.4 4104.5 4127.8 4102.4 4038.4 4093.2 4135.3 4145.6 4108.3 4011 3960.3 4068.4 4140 4127.3 4099.6 4135.2 4248.7 4262.2 4170 4065.7 3996.5 3999.4 4017.4 4056.8 4075.1 4045.8 3996.3 4051.5 4115.5 4109 4217.7 4205.8 4182.8 4191.4 4200.9 4227.4 4221.7 4139.9 4057.9 4000 4015.3 4030.4 4018.6 3979 4036.5 4075.7 4089.9 4152.8 4121.1 4110 4168.9 4198 4220.4 4237.8 4176.7 4071.9 3993.7 3987.7 4041.5 4089.3 4093.7 4035.7 4033.9 4158.6 4260.7 4143.7 4057.3 4039.1 4096.1 4222.4 4154.5 4024.4 3952 3980 4031.2 4027.7 4071.8 4057.5 4063.1 4084.9 4101.3 4138.2 4175.4 4096.1 4123.2 4096.2 4198.2 4295.7 4316 4186.9 4101.8 4078.8 4017.4 3972.6 3998.5 4111.9 4125.3 4082.5 4058.7 4065.1 4061.3 4035 4047.4 4130.7 4209.2 4273.8 4111.9 4035.2 4082.2 4079.1 4081.7 4065.4 4071.8 4133.1 4156 4188.1 4196.2 4149.7 4081.3 4093.2 4128.3 4139.5 4147.6 4076.5 4052.8 4110.2 4227.8 4243.4 4101.8 4011.1 4014.8 4035.3 4087.7 4092.5 4045 4040.2 4036.5 4072 4136.3 4170.2 4115.6 4068.4 4138.8 4144.1 4101.5 4100.1 4071.2 4036.4 4079.8 4187.3 4228.6 4124.4 4142.9 4194.9 4169.5 4137 4074.7 4013.9 3929.8 4018.8 4096.7 4085.9 4142.9 4081.9 4057.3 4060.5 4170.4 4306.9 4237.8 4199.5 4125 4103.2 4143.6 4130.7 4108.2 4009.3 3973.4 4062.7 4160.2 4267.6 4276.8 4154.4 4007.6 3993.1 4089.3 4157.7 4115 4035.5 4031.5 4091.4 4065.3 4084.5 4048.4 3964.7 3980.5 3987.3 3987.5 4027.4 4088.9 4134.2 4168.8 4266.1 4259.1 4205.7 4205.6 4263.6 4296.9 4216.4 4208.6 4223 4106.6 4064.7 4114.8 4146.4 4087.9 4064.6 4067 4117.2 4144.6 4134.1 4141.8 4157.6 4253.4 4292.4 4193.4 4153.9 4157.2 4114.7 4072.4 4091.9 4160.6 4211.8 4134.8 4168 4127.6 4109.9 4201.6 4211.7 4146.7 4124.2 4158.4 4219.3 4238.8 4227.6 4103.7 3985.3 4040.8 4106.3 4075.1 4011.1 4003.4 4044.1 4169.5 4248.2 4160.7 4117.5 4097.6 4140.3 4166.2 4149.9 4165 4148.2 4170.8 4205.1 4121.5 4076.3 4092.2 4130 4157.1 4159.3 4125.6 4146.9 4142.3 4265.2 4347.6 4246.4 4094.3 4034.7 3963.8 3928.4 3963.3 3978.1 4002.5 3984 4026 3975.9 3948.3 3972.9 3964.7 4001.8 4106.3 4153.5 4088.6 3988.1 3992.3 3978.5 4018.7 4138.6 4152.5 4044.5 3899.9 3930.1 4047 4125.6 4172.8 4146.5 4098.5 4148.2 4182.8 4223.1 4233.9 4214.1 4134.9 4090.6 4170 4186.4 4138.3 4070.9 4034 3991.9 4024.8 4087.8 4203.9 4350.6 4346 4224.5 4106.5 4058.5 4038.2 4001.7 4005.2 4024.3 4035.3 4048.8 4051.9 4172.4 4210.5 4220.6 4225.6 4282.9 4266.6 4246.6 4270.9 4332.3 4406.8 4445.3 4473 4538.2 4702.4 4823.8 4845.9 4891.9 4904.2 5067.6 5231.6 5400.3 5554.4 5609.1 5706.2 5766 5788.3 5811 5801.8 5759.5 5705.3 5698.8 5661.2 5688 5746.5 5741 5811.4 5890 5861.9 5666.3 5392.6 5154 4893.2 4701.7 4572.5 4361.3 4185.7 4091.6 4084.7 4169.2 4117.4 3952.5 3752.4 3701.5 3699.9 3726.6 3745.4 3688.2 3638.5 3668.8 3787.6 3948.5 3969 3904.4 3881.8 3920.7 3948.4 3952.8 3980.8 3903.2 3885.7 3895.3 3968.7 4116.5 4212.7 4154.3 4120.1 4153.1 4205.2 4161.6 4122.1 4104.6 4117.8 4098 4080.2 4128.6 4121.6 4133.7 4121.3 4148.1 4206.6 4188 4144 4094.8 4144.5 4319.9 4420.1 4358.1 4146.8 4006.8 3978 4058.6 4109.5 4095.7 4089.1 4129.9 4156.2 4228 4290.4 4258.4 4330.4 4441.2 4491.8 4369.4 4191.3 4018.6 3969.2 4024 4123.4 4170.8 4181.7 4189.5 4215.6 4189.5 4208 4199.7 4171.8 4236.9 4274.9 4294.5 4258.1 4169.2 4138.6 4140.2 4164.5 4286.9 4383 4300.7 4187.6 4094.2 4097.4 4134.4 4158.6 4147.8 4187.6 4229.2 4230.7 4243 4266.5 4196.7 4188.1 4204.1 4203.2 4224.2 4222.7 4187.4 4219.9 4167.9 4160.9 4156.5 4167.7 4195.6 4197.4 4270.5 4301.8 4205.6 4091.3 4023.6 4013.1 4068.9 4153.7 4225.8 4117.1 4065.3 4170.1 4229.2 4194 4128.7 4129.7 4112.9 4201.1 4320.7 4291.1 4252.7 4184.2 4168.5 4238.3 4294.4 4264.8 4254.3 4345.6 4317.4 4240.3 4383.9 4444 4314.3 4201.5 4216.4 4279.2 4287.8 4242.2 4161.1 4132.2 4205 4292.8 4353.1 4310.6 4221.4 4213.6 4314.6 4379.9 4347.6 4321.3 4331 4379 4351.2 4327.7 4387.8 4331.8 4267 4274.6 4323.1 4292.5 4245.6 4246.3 4217.1 4209.3 4352.4 4533.3 4460.4 4399.3 4410.5 4435.9 4402.1 4429.8 4433.3 4357.3 4344.9 4311.2 4238.4 4216 4186.6 4230.2 4253.3 4304.6 4379.9 4448.8 4403.7 4394 4507.4 4448 4405.9 4446.6 4432.4 4402.6 4439.6 4394 4371.5 4301.4 4310.6 4382.9 4474.6 4462.4 4368.2 4313.6 4311.2 4394.4 4401.9 4373.6 4370.5 4341.4 4314.1 4361.7 4367.3 4317.7 4302.7 4356.9 4491.4 4605.3 4559.5 4442.4 4331 4353.6 4589.6 4582.2 4386.4 4264 4174.8 4187.2 4248.7 4266.4 4262.5 4286.1 4350 4422.5 4439.3 4490.3 4492.7 4478.6 4485.5 4503.9 4429.8 4335.9 4361 4377.3 4448.5 4535.2 4504.5 4368.3 4246.2 4270.5 4256.2 4205.8 4386.7 4477.3 4462.8 4418.4 4350.9 4281.7 4227.1 4230.6 4213.5 4193 4204.3 4231 4224.2 4251.5 4280.2 4268.4 4283.6 4339.1 4345.4 4312.3 4340.9 4349.2 4310.8 4250 4185 4164.2 4140.1 4132.3 4169.5 4181.9 4151.8 4092.2 4121.9 4182.7 4203.8 4247 4204.5 4185.8 4179.1 4219.3 4206 4183.3 4159.1 4145.2 4140.1 4136.1 4181.5 4253.3 4248.7 4196.3 4152.8 4133.3 4185.8 4178.5 4250.2 4430.5 4551 4364.7 4157.4 4120.5 4129.1 4188.6 4239.1 4255.3 4145.7 4073.3 4002 4024.3 4127.7 4152.2 4129.3 4157.9 4137.2 4102.4 4082.8 4035 3977.1 4023.9 4122.7 4103.1 4069.8 4085.9 4065.3 4095.8 4113 4142.4 4193.8 4180.8 4142.7 4154.8 4171.3 4227 4177.6 4130.8 4039.7 4044.1 4142.8 4177.3 4131.8 4062.1 4042.5 4078.5 4202.7 4280.9 4225.2 4182.2 4154.9 4152.5 4172.5 4209.2 4224.2 4179 4126.6 4202.8 4253.1 4274 4227.4 4242.6 4230.2 4216.1 4309.7 4296.1 4243.6 4241.8 4254.2 4332.5 4331.4 4348.7 4285.4 4274 4332.6 4277.3 4225.3 4154.3 4119.5 4199.3 4271.6 4433.3 4426.3 4231.6 4125.5 4158.4 4269.2 4226.7 4275.4 4334.7 4226.1 4159 4136.8 4186 4250.5 4213.8 4207.8 4237.6 4215.1 4295.1 4289.6 4224.8 4192.4 4197.8 4171.3 4156.2 4216.3 4240.2 4196.9 4171.2 4184.5 4158.4 4087.1 4022 4052.8 4167.1 4225.4 4230.1 4252.3 4273.7 4300 4364.3 4269.9 4140.2 4081.7 4150.4 4215.8 4214.4 4207.1 4153.3 4146.8 4230.1 4334.1 4303.9 4168.3 4097.9 4100.8 4244.6 4289.8 4232.6 4222.5 4159.6 4131.9 4158 4137.8 4101.5 4106.3 4143.7 4211.2 4305.2 4438.1 4362.3 4254.4 4182 4219.3 4239.9 4205.4 4144.6 4129.9 4252.4 4340.6 4198.6 4078.9 3986.8 3979.1 4073.3 4217.6 4418.8 4380.8 4274.6 4277.1 4269.9 4234.1 4243.1 4237.8 4084.5 4012.1 3997.8 4020.4 4083.9 4118.8 4171.8 4219.9 4191.1 4196.6 4199.9 4143.6 4139.4 4192.7 4214.6 4189.2 4196.9 4151.2 4124.9 4138.8 4151 4180.4 4202.7 4225.1 4246.6 4271 4265.1 4228.6 4155.5 4135.5 4164.2 4243.3 4253.2 4232.7 4150.7 4137.3 4133.9 4102.2 4149.1 4162.8 4133.3 4207.2 4164.5 4207.2 4237.2 4220.8 4235.8 4211.8 4234.8 4321.9 4376.3 4316.3 4170.6 4096 4167.6 4189.2 4136.1 4120.3 4182.3 4145.1 4154.5 4184 4164.3 4180.1 4308.8 4388.4 4246.8 4132.2 4142.6 4072.7 4126.6 4168 4135.8 4121 4123.1 4179 4188.1 4243.6 4243.4 4208.4 4228.4 4242.3 4326.3 4388 4346.5 4246.2 4135.3 4101.8 4168.4 4271.1 4279.6 4223.6 4210.1 4154.7 4177.9 4249.5 4249 4263.8 4254.5 4199 4178.6 4112.4 4115.3 4131.6 4147.6 4233.2 4237.7 4195.1 4187.9 4288.1 4264.4 4256.5 4306.6 4294.1 4292.9 4319.7 4279 4278.4 4307.8 4265.5 4212.3 4259.7 4316 4305.1 4338.9 4347.1 4339.9 4263.3 4235.6 4309.8 4306.2 4236.1 4200.9 4239 4253.9 4166.3 4125 4096.3 4132.8 4223.2 4224.9 4226.9 4234.7 4214.1 4257.7 4242 4231.4 4211.2 4210.1 4262.1 4291.2 4282 4281.4 4262.4 4281.9 4337.5 4292 4230.8 4161.6 4075.5 4037.4 4055.7 4109.5 4165.8 4232.7 4112.8 4026.8 4165.3 4271.5 4250.5 4154 4111.3 4127.8 4076.7 4114 4098.5 4034.2 4012.7 4143.1 4254 4260.6 4268.1 4183.6 4128.6 4116.8 4121 4144.5 4132.1 4104.9 4084.8 4094.9 4103.6 4083.5 4075.1 4072.6 4137 4192.4 4254.1 4291.4 4219 4175.5 4211.9 4280.3 4319.1 4229 4146.1 4070.4 4084.5 4169.5 4244.3 4243.6 4151.6 4210.6 4317.4 4301.4 4294.5 4302.3 4256.8 4117.6 4063.9 4094.5 4096.3 4050.9 4037.5 4112.6 4117.4 4031.6 4048.4 4095.5 4161.7 4219.9 4187.9 4241.3 4329.9 4364.7 4347.1 4369.5 4478.6 4483.8 4544.7 4663.2 4718.5 4794.9 4854.5 4842.6 4897 5005.1 5045.7 5145.3 5413.8 5626.9 5630.9 5679.2 5943.9 6146.6 6042.3 5892.4 5830.4 5772.2 5749.5 5762 5777.5 5821.3 5848.2 5879.6 5874.6 5875.1 5762.5 5522.3 5339.9 5130.9 4930.5 4697.8 4490.4 4328.3 4208.2 4161.1 4154.7 4079.8 3981.3 3926 3927.9 3784.6 3817.7 3916.5 3851.9 3783.7 3803.2 3853.5 3874.3 3901.5 3891.2 3860.8 3869.7 3943.3 4020.8 4079.8 4141.3 4232.3 4256.7 4242.7 4229.7 4178.7 4169.7 4228 4312.3 4364.6 4316 4258.8 4236.5 4255.7 4273.8 4210 4138.9 4148.5 4195 4275.8 4284.5 4319.6 4305.9 4234.6 4222.3 4247.9 4303.7 4460.3 4325.4 4124.8 3991.5 3984.4 4027.2 4102.7 4123.4 4160.9 4217.1 4265.2 4304.9 4290.4 4257.4 4214.3 4186.6 4169.5 4114.6 4175.8 4178.4 4236.6 4271.4 4230.2 4189.4 4130.3 4172.9 4251.2 4337 4475.9 4430.3 4300.6 4297 4323 4280 4234.8 4202.4 4173.1 4188.8 4288.7 4398.4 4428.7 4338.5 4272.8 4265.5 4284.2 4351.4 4334.8 4323.1 4329.6 4290.7 4361.6 4356.9 4292.5 4321.2 4428.7 4508.4 4475.2 4384 4302.4 4251.5 4197.2 4167.8 4226 4270.8 4330.8 4335.2 4291.9 4310.2 4310.4 4292.7 4290.5 4256.6 4248.6 4311.5 4323.7 4366.8 4448.3 4499.7 4352.1 4258 4309.7 4345.4 4261.8 4205.6 4292 4358.3 4316 4262.7 4252.9 4310.2 4315 4300.6 4324.4 4277.2 4247.9 4286 4454.9 4499.2 4521.1 4479.8 4365.9 4363.2 4427.9 4384.1 4253.8 4179 4232 4276.5 4276.6 4312.8 4298.8 4267.7 4258.8 4290.5 4359.8 4354.9 4326.7 4370.4 4391.2 4446.7 4502.3 4492.1 4325 4316.4 4339.1 4372.2 4414.4 4349.6 4284.4 4288.7 4375.4 4438.7 4462 4425.4 4439 4457.2 4454.3 4436.1 4413.5 4411.9 4404.1 4441.7 4492 4504.4 4494.6 4420.4 4409.7 4585.3 4746.9 4745.8 4633.6 4464.5 4488.6 4540.3 4465.7 4594.1 4511.9 4363.7 4372.8 4393.8 4405.7 4420.6 4405.3 4426.8 4458.2 4524.3 4546.2 4531.6 4544.6 4562.4 4609.8 4543.4 4462.6 4426.2 4404.3 4531.9 4604.9 4520.6 4527 4556 4541.4 4461 4452.7 4481.1 4495.5 4510.5 4520.8 4548 4533.2 4556.9 4578.5 4472.6 4492.9 4539.9 4531.2 4525.6 4442.8 4489.1 4508.5 4516.1 4659.2 4647 4558.2 4462.2 4485.4 4510.2 4558.9 4614.3 4464 4363.3 4359.6 4311.8 4326.1 4374 4443.3 4392.3 4339 4405.6 4430.4 4366.5 4330.1 4355.2 4395.1 4365.7 4353.8 4362 4425.7 4503 4372.2 4303.7 4243.2 4260.9 4243.3 4292.8 4360.8 4356.9 4298.6 4241 4236.8 4384.1 4477.1 4365.7 4278.1 4351.6 4420.2 4309.9 4161.2 4088.9 4052 4148.6 4243.5 4231.4 4168.4 4091.1 4092.9 4151.7 4192.7 4218.4 4239.1 4187.2 4161.4 4243.1 4202.4 4166.5 4174.2 4206.4 4212.7 4286.4 4441 4483.2 4385.3 4351.9 4262.8 4252.7 4295.1 4341.9 4292 4252.9 4204.5 4191.9 4176.9 4196.5 4198.6 4199.9 4248.1 4381.3 4407.3 4291.8 4219.8 4201.7 4229.1 4263.5 4266.7 4191.9 4134.7 4169.9 4216.9 4232.2 4196.6 4136.1 4191.3 4249.9 4264.9 4273.2 4283.6 4265.1 4255.8 4317.6 4382 4358.4 4301.7 4153.2 4105.5 4184.3 4254.1 4344.6 4360 4329.8 4282.5 4313.9 4359 4441.5 4435.9 4376.6 4314.3 4267 4258 4205.4 4119.5 4129.1 4221.3 4220.9 4190.7 4169.9 4252.5 4311.8 4329.6 4297.4 4322.7 4473.1 4515.1 4468.1 4301.3 4135.5 4149.5 4096.9 4117.1 4251.1 4268.7 4203.6 4158 4285.7 4266.1 4197.4 4299.3 4317.3 4355.6 4439.7 4403.5 4301.7 4243.3 4236.9 4218.8 4227.1 4248.5 4232.1 4161.4 4149.7 4190.9 4235.4 4294.1 4318.5 4334.4 4339 4247.9 4244.7 4380.4 4382.7 4324.4 4201.6 4131.5 4087.7 4199.6 4276.8 4237.2 4193.4 4244.9 4274.5 4306.6 4317.9 4319 4302.4 4387.1 4540.3 4448.3 4345.4 4256.6 4210.2 4184.1 4269.2 4359.4 4271.7 4264.4 4273.9 4282.4 4332.9 4331 4262.6 4261.1 4259 4290.7 4278 4258.4 4283.9 4265.7 4300.5 4312.3 4273.7 4272.8 4180 4151.7 4228.4 4319.1 4327.5 4284.3 4233.2 4220.7 4191.3 4189.7 4263.7 4260.6 4167 4172 4217.6 4246.2 4274.5 4302.1 4319.3 4284.1 4311.1 4306.2 4277 4230.3 4190.9 4207.6 4235.6 4256.2 4311.9 4302.6 4275.4 4289.8 4227.8 4189.4 4168.5 4133.3 4139.2 4228.3 4343 4326.5 4304.9 4379.3 4358.3 4346.1 4341.7 4291 4199.3 4214 4270.8 4301 4293 4310 4357.1 4304.1 4191.5 4197.6 4154.5 4090.1 4171.1 4255.9 4298.5 4259.6 4235 4124.5 4083 4121.1 4168.9 4191.2 4169.7 4149.5 4145.8 4183.7 4177.7 4155.7 4177.3 4235 4310.3 4378.1 4290.2 4221.9 4175.7 4141.5 4144.6 4192.8 4231.9 4200.7 4258.3 4370.5 4353.7 4342.5 4347.6 4309.1 4300.3 4340.9 4412 4368.9 4311.3 4217.2 4095.1 4056.6 4070.4 4087.9 4135.9 4152.8 4152.6 4177.8 4249.6 4321.7 4308.7 4326.8 4332.6 4368.2 4352.5 4318.4 4257.6 4248.2 4311 4367.9 4336.5 4224.2 4102.8 4112.9 4176.7 4282.2 4329 4318.4 4316.5 4290.5 4281.3 4340 4332.7 4241.4 4156.1 4175.2 4344.8 4398.6 4357.6 4320.3 4301.4 4300.2 4286.1 4351.9 4411.7 4389.8 4348.5 4365.9 4427.4 4462.2 4346 4181.1 4163.5 4285.1 4358.7 4323.6 4277.3 4230.8 4200.2 4247.3 4244.1 4242.8 4279 4288.7 4348.7 4420.6 4431.3 4398.1 4274.4 4192.4 4147.9 4139.3 4208.8 4187.2 4207.4 4270.6 4401.6 4427 4369.5 4331.3 4317.6 4312.2 4306.3 4227.5 4194.2 4167.8 4154.5 4197.6 4199.1 4150.6 4128.9 4197.8 4231.1 4236 4233.9 4264.8 4263.1 4206.3 4230.1 4302.7 4253.5 4290.6 4354.6 4319.2 4294.6 4301.7 4287.7 4240.8 4230.3 4159.4 4209.8 4337.4 4389.8 4419.5 4388.5 4288.4 4232.7 4252.9 4320.5 4252.1 4180.2 4163.1 4140.5 4063.4 4091.3 4144.6 4173.9 4182.6 4208.9 4213.2 4110.8 4044.2 4073.5 4158.1 4239.3 4240.6 4140 4026.6 4009.5 4055.3 4108.6 4113.3 4117.7 4115.1 4190.5 4266.4 4273.7 4222.8 4221.3 4238.4 4240.4 4271.3 4253.9 4204.7 4137.7 4109.7 4150.3 4137.8 4134.1 4142.2 4193.9 4171.7 4214.6 4278.5 4232 4316.3 4336.3 4246.3 4230.5 4151.8 4155.6 4210.4 4241.1 4158.5 4079 4052.9 4099 4176.9 4216.2 4284 4364.1 4356.8 4314.5 4299 4334.2 4456.4 4456.1 4454.6 4413.2 4423.1 4510.1 4619.7 4677.6 4695.4 4776.5 4890.3 4956.7 5126.3 5276.5 5351 5448.8 5664.2 5864.6 5865.4 5920.6 6043 6030.1 5998.4 5984.3 5952.9 5930 5922.9 5978.4 6025.3 6121.1 6159.1 6110.2 6032.8 5872.9 5701.3 5422.6 5173.6 4865.3 4568.1 4379.4 4227.2 4132.3 4055.1 3929.6 3872.9 3828.8 3861.4 3891.8 3868.2 3799.4 3820 3866.6 3814.7 3813.5 3861.8 3902.2 3953.6 4036.4 4128.6 4143.4 4104.5 4106.8 4124.9 4298.4 4506.8 4418.9 4258 4203.7 4319.2 4249.5 4073 4119.9 4137.5 4160 4210.4 4168.6 4164.7 4152.7 4207.2 4263.6 4277.6 4261.5 4224.6 4199.2 4200.9 4223.9 4201.5 4191.6 4214 4240.9 4308.7 4329.9 4284.9 4240.8 4240.8 4303.2 4357.5 4425.5 4457.4 4391.7 4297.8 4234.2 4232.7 4266.7 4337.4 4284.2 4160.9 4133.1 4194 4236.3 4224.3 4160.4 4158.4 4227.6 4264.6 4273.1 4276.5 4264.9 4244.1 4267.3 4419.5 4465.3 4413.8 4302.1 4234.6 4262.2 4307.2 4309.2 4225.4 4278.6 4362.1 4385.6 4367.4 4275.9 4224.5 4170.5 4186 4268 4264.9 4276 4245.3 4216.6 4230.8 4268.2 4292.2 4270.6 4288.1 4338.9 4330.7 4377.5 4310.1 4226.6 4197.7 4238.3 4323 4322.9 4312.7 4248.2 4211.4 4256.7 4275.7 4244 4247.1 4266.5 4286.6 4316.3 4402.4 4394.6 4361.3 4427 4458.5 4445.8 4322.1 4213.6 4222.8 4300.7 4369.8 4345.7 4331.9 4377.5 4354.6 4360.6 4310.4 4277.2 4248 4180.4 4190.7 4226.1 4268.2 4288.2 4270.9 4258.9 4193.1 4173 4216.8 4192.3 4198.6 4218 4341.7 4378 4383.8 4425.6 4414 4434.9 4382.9 4387.1 4421.3 4412.5 4413.2 4411.1 4407.9 4424.9 4464.3 4517.6 4413.2 4385.9 4370.3 4379.4 4413.3 4386.4 4406.2 4428.4 4452.8 4464.9 4425 4455.2 4535.2 4525.5 4486.5 4468.8 4426.8 4438.9 4413.3 4392.1 4438.8 4450.4 4423.4 4449.3 4474.1 4489.7 4507.1 4532.5 4533.9 4502.9 4408.1 4400.1 4426 4444.7 4471.8 4478.1 4432.7 4408.6 4529.6 4696.2 4665.5 4565.6 4467.1 4558.1 4605.6 4566 4438.8 4373.6 4401.8 4344.3 4387.8 4458.3 4426.7 4448.4 4473.1 4481.5 4437.7 4383 4396.5 4446.5 4488.5 4466 4498.6 4526.9 4516 4551.5 4480.3 4470.7 4491.2 4444.1 4528.4 4572.8 4552.1 4601.2 4655.7 4616 4577 4512.4 4448.6 4459.8 4442.5 4385.4 4341.1 4339.3 4339.5 4366.4 4343.6 4448.5 4438.2 4402.7 4413.1 4462.2 4420.7 4323.2 4323.2 4510.2 4525.3 4253.1 4005.3 4078.8 4230.9 4319.6 4332.6 4217.3 4126.3 4159.5 4232.4 4275.6 4261.9 4248.9 4235.7 4258 4292.6 4315.6 4313.7 4265.7 4193 4186.7 4248.8 4258.7 4165.5 4189.6 4243 4339 4383.5 4322.1 4275.3 4267.1 4348.3 4415 4384.8 4281 4129.9 4080.3 4139.7 4129.7 4185.1 4209.5 4283 4282.7 4234.5 4263 4284 4327.9 4301.4 4261 4340.5 4346.7 4317.2 4152.1 4063.3 4123.1 4286.7 4252.9 4164.6 4199.5 4319.2 4313.1 4288.4 4257.9 4137.4 4133 4238.7 4244.2 4210 4206.9 4165.1 4096.3 4108.5 4140.7 4157.2 4174.4 4147.3 4157.4 4182.2 4217.1 4257.7 4195.7 4146.1 4146 4222.9 4213.5 4158.7 4100.7 4110.1 4162.7 4159.2 4118.9 4104.6 4114.4 4183.7 4240.7 4277.7 4241 4218.8 4223.6 4225.6 4237.7 4260.2 4251.5 4263 4222.7 4175.9 4189.8 4197.6 4181.8 4155.1 4245.2 4374.5 4456.2 4464.6 4376.2 4289.3 4273.5 4300.3 4276.9 4207.5 4175.1 4110.2 4113.7 4189.7 4248.2 4203.1 4086.3 4095.3 4212.4 4294.8 4344.8 4329.3 4266.6 4295.7 4358.5 4330.6 4218.9 4165.4 4088.6 4082.8 4201.2 4201.2 4230.6 4298.4 4332.4 4297 4302.1 4270.2 4242.9 4187.9 4187.4 4243.2 4327.5 4341.1 4267 4147.4 4121.4 4221.4 4275.8 4255.7 4159.6 4155.5 4210.8 4234.9 4245.4 4242.5 4264.4 4340.9 4333 4256.4 4205.4 4276.4 4310.4 4275.9 4180.1 4060 4126.8 4166.7 4128.9 4219.5 4274.5 4266.8 4271.4 4257.3 4228.7 4217.1 4232.8 4184.6 4163.8 4163.4 4131 4149.6 4187.9 4187.9 4148.4 4115.5 4154.5 4181.7 4215.2 4237.8 4228.3 4253.4 4308.7 4414.3 4373.8 4298.3 4319.1 4250.2 4177.2 4167.5 4204.3 4269.2 4263.9 4243.6 4199.9 4181.5 4169.6 4125.2 4184.2 4208.4 4211.5 4151.2 4124.1 4161.5 4122.3 4096.5 4116.5 4163.2 4205 4190.9 4152.5 4165 4248 4246.8 4174.6 4106.5 4124.8 4249.8 4329.8 4271.8 4178.1 4108.9 4058.3 4084.6 4111.9 4153.7 4173 4143.5 4156.8 4214.7 4251.2 4331.4 4365.5 4260.8 4170.8 4179 4248 4272.7 4215.1 4136.6 4142.9 4085 4039.8 4089.1 4169.5 4056.9 4062.8 4153.6 4201.5 4174.4 4135.1 4149.1 4226.7 4208.3 4182.9 4201.1 4181.9 4112.3 4074.7 4094.1 4164.4 4200.3 4218.5 4231.9 4249.9 4255.4 4238.3 4251.9 4249.1 4203 4196.1 4239.1 4206.7 4122.5 4130 4125 4121.1 4083.9 4070.3 4061 4026.6 4116.8 4130.4 4147.4 4207.2 4262.3 4330.7 4282.8 4202.4 4152.8 4109.1 4063.4 4145.7 4248.9 4288 4292.5 4224.9 4116.1 4151.3 4192.3 4133.6 4152.1 4191.4 4225.3 4247.3 4217.7 4160.3 4077.5 4106.2 4189.4 4236.4 4192 4114.9 4073 4061.7 4174.1 4242.2 4228.3 4180.9 4165.8 4230.6 4220.7 4184.1 4124.9 4061.1 4078.3 4133.7 4154 4176.4 4153.7 4133.7 4157.6 4281 4359.5 4280.2 4243.6 4238.6 4234.9 4276.7 4341.6 4236.8 4021.4 4010.3 4030.1 4020.1 4087.7 4064.9 4051.2 4031.8 4105.4 4205.6 4267.2 4202.8 4129.2 4144 4207.4 4167 4122.7 4096.5 4051.6 4071.9 4129.3 4258.7 4275.4 4181.1 4156.4 4062.5 4037.4 4109.3 4232.5 4377 4330.8 4238.6 4180.7 4152.9 4201 4221.1 4172 4130.5 4116.5 4058.1 4027.6 4058.2 4175.7 4228.7 4199.8 4161.7 4209.3 4240.4 4224.4 4170.8 4136.6 4070.9 4086.2 4227.4 4332.3 4249.2 4069 4036.5 4113.2 4114.5 4175.9 4192.1 4171.2 4199.4 4185.3 4190.1 4215 4197.9 4155.5 4124.7 4131.4 4120.6 4126.8 4117.4 4166.2 4230.2 4240.6 4227.2 4228.1 4230 4225.8 4268 4313.6 4275.3 4183.2 4151.9 4090.7 4082 4106.6 4174 4247.5 4283.7 4226.2 4177.5 4260.2 4254 4096.1 4045.7 4060.3 4015.2 4023.6 4059.9 4090.4 4042.3 4027.8 4096.8 4134.9 4126.7 4088.1 4141.3 4157.9 4155.9 4222.7 4192.9 4163.7 4225.2 4295.6 4244.9 4138 4210.7 4242.6 4195 4180.3 4250 4229.3 4127 4091.6 4015.1 4051.8 4165.5 4234.7 4239.9 4238.9 4216.8 4234.8 4191.7 4197.9 4176.9 4182.5 4194.7 4178.5 4190.7 4229.6 4247.9 4305.1 4349.7 4307.7 4337.1 4407.9 4458.8 4450.3 4318.7 4273.7 4244 4228.5 4231 4215.4 4169.8 4114.5 4116.8 4173.9 4240.4 4221.6 4211 4177.7 4180.2 4267.1 4343.9 4341.2 4227.4 4205.8 4228.2 4202.3 4198.4 4109.3 4085.5 4006.8 4005.2 4139.9 4176.4 4185.4 4164 4143.6 4148.9 4148.7 4175.4 4207.3 4219.7 4161 4101 4033.4 4034.9 4093.2 4102.7 4107.1 4182.1 4206 4313.3 4314.8 4271.7 4268.9 4258.2 4225.7 4228.4 4229.6 4181.9 4093.6 4090 4099.5 4089.2 4197.9 4232.4 4219.1 4198.7 4178.7 4156.9 4198 4274.5 4254.4 4174.4 4159.9 4116.8 4087.8 4072 4088.9 4131.1 4125.8 4111.2 4112.4 4145.5 4150.9 4152.4 4161.5 4189.4 4249.7 4231.1 4125.7 4102.1 4129.4 4162.8 4137.5 4124.4 4139.1 4098.3 4082.7 4087.3 4142.5 4183.7 4252.7 4294.6 4206 4200.7 4178.8 4187.2 4186.3 4177 4233.9 4194.3 4163 4105 4027.4 3998.2 3992.4 3962.2 4066.2 4250.2 4260.9 4209.9 4197.4 4174.4 4069.5 4104.9 4140.4 4159.2 4100.5 4135.5 4239.2 4204.9 4172.9 4174.7 4211.4 4279.9 4330.5 4415.6 4453.4 4468 4542.8 4641.2 4762.2 4837.5 4915.2 4946.5 5013.6 5148.7 5281.1 5417.7 5527.1 5598.4 5770.1 5932.7 6093.7 6073.5 6047.2 6102.2 6108 6126.5 6103.6 6089.4 6029.5 6025.1 5987.8 5958.1 5902.7 5701.3 5423.3 5266.8 5029 4745.4 4617.7 4471 4243.1 4092.4 4047.7 3988.5 3964.4 3871.9 3637.9 3558.2 3650 3693.8 3717.3 3673.3 3681.3 3734.4 3809.1 3840.6 3835.2 3918.8 4030.2 4117.1 4170.4 4177.3 4177 4206.4 4308.4 4275.1 4235.5 4190.8 4144 4159.8 4125.9 4147.7 4197 4269.9 4220.5 4180.9 4284.3 4346.6 4211.8 4191.8 4165.3 4191.6 4305.5 4217.9 4152.8 4164.9 4157.8 4087.8 4125.3 4184.2 4195.7 4246.2 4349.2 4329.1 4335 4226.8 4175.3 4161.4 4200 4268.3 4235.7 4167.5 4153.7 4217.4 4232.6 4223.8 4342.1 4329.6 4254.8 4179.8 4122.4 4142.1 4177.1 4206.1 4159 4104.9 4156.8 4175.7 4170 4176.1 4146.1 4166.2 4205.8 4349.8 4413.7 4305.5 4273.6 4225.7 4225.8 4188.9 4173.5 4116.3 4051.8 4125.5 4212.1 4199.9 4223.2 4209.7 4171.8 4260.5 4332 4301.2 4242.5 4215.8 4214 4219.9 4198.2 4204.2 4236.3 4198.3 4168.3 4203.6 4238.1 4257 4201.6 4262.5 4237 4268.9 4370.6 4362.7 4391.8 4379.7 4297 4235.6 4328.4 4369.3 4260.5 4200.9 4253.4 4326.6 4371.6 4384.6 4300.4 4136.6 4084.8 4172.4 4237.5 4234.3 4232.1 4211.7 4279.2 4288.5 4239.3 4226 4220.9 4257.2 4244.1 4215.7 4175.7 4205.7 4235.2 4205.8 4239.8 4249.2 4242.9 4251.7 4296.7 4359.9 4297.5 4277.9 4241 4210.7 4276.8 4370.8 4390.2 4331.7 4254.8 4280.6 4379.5 4454.6 4453.9 4398.9 4368.1 4353.6 4435.1 4449.1 4436.1 4411 4324.7 4348.9 4295.6 4374.9 4450.3 4343.1 4251 4215.4 4318.2 4389 4344.1 4296.4 4332.8 4347.6 4373.4 4431.8 4386.6 4327.1 4377.9 4449.8 4421.7 4396.6 4431.6 4428.5 4384.7 4416.6 4438.9 4412.4 4396.7 4384.1 4466.7 4482.2 4458.2 4415.6 4377.8 4411.2 4424.5 4400.8 4400.6 4391.6 4412.8 4429.5 4437.4 4461.2 4385.6 4304.1 4345.9 4420.6 4382.3 4297.6 4296.1 4315.4 4401.5 4455.2 4434.4 4401.7 4353.3 4370.9 4356.4 4407.1 4452.7 4452.1 4475.7 4478.7 4471.6 4440.1 4399.2 4374.3 4308.7 4344.1 4396.3 4423.3 4426.9 4363.1 4336.1 4382 4417.9 4428.3 4405.6 4387.8 4379.4 4412.4 4409.1 4390.8 4415.9 4434.6 4413.8 4436.3 4418.6 4355.4 4238 4204.5 4251.5 4382 4556.2 4534.1 4430.1 4469.3 4486.8 4394.7 4322.1 4352 4435.1 4321.3 4191.8 4088 4016.8 4068.9 4098.8 4118.2 4145.1 4189.7 4208.6 4203.2 4187.3 4192.6 4221 4212.1 4246.2 4184.7 4094.2 4101.5 4147.7 4199.6 4234.7 4154.9 4128.6 4194.5 4280.8 4321.3 4256 4228.5 4256.4 4290.4 4250 4177.4 4083.1 4045.5 4082.6 4113.8 4137.6 4159.4 4167.2 4135.8 4092 4178.9 4312.8 4300.2 4241.8 4175.7 4202.9 4238.9 4266.6 4284.3 4296.7 4295 4282.7 4290.9 4196.3 4138.4 4235.4 4226.5 4195.5 4111.4 4058.8 4088.8 4115.3 4145.1 4151.3 4167.3 4189.7 4146.7 4068.3 4067.3 4100.3 4113.9 4086.6 4100 4121.4 4167.7 4214.7 4190.3 4161.7 4157.1 4146.3 4167.8 4171.2 4168.7 4198.3 4303.7 4332.1 4200.4 4150.8 4200.9 4226.2 4103.8 4113.5 4183.3 4204 4245.3 4243.9 4234.2 4214.1 4151.1 4117.3 4106.2 4201.8 4249.9 4207 4182.9 4082.6 4050.5 4096.7 4201.8 4266.5 4249.9 4174.7 4142 4187.5 4234.5 4244 4201.3 4156.6 4131.9 4157 4185.5 4184.4 4214.7 4189 4195.5 4201.8 4239.4 4239.2 4229.6 4239.3 4244.3 4293.5 4265.1 4238.4 4184.5 4137.9 4170.7 4262.3 4309 4308.4 4266.8 4226.1 4249.2 4335.3 4380.3 4293.4 4216.5 4270.2 4378.7 4421.6 4356 4263.9 4239.1 4202.1 4047.8 4046.2 4114.1 4112.3 4113.1 4137.6 4199.7 4223.5 4167.5 4167.6 4151.9 4153.6 4156.7 4150.2 4115.1 4095 4120.2 4170 4181.9 4140.9 4135.2 4195.4 4217.5 4235.3 4224.1 4156.1 4141.2 4192.7 4208.2 4171.5 4158.6 4165.1 4143.5 4119.5 4109.9 4132.8 4179.2 4129.2 4102.5 4183.4 4243.9 4295.6 4281 4239.7 4295.8 4380.4 4408.3 4309.9 4185.1 4089 4169.7 4301.5 4173.8 4120.1 4023.3 4015.5 4063.6 4141.4 4232.4 4193.1 4195.1 4261.9 4297.7 4282.9 4185.4 4111.9 4039.6 3956.6 3969.7 4060.7 4123.1 4097.3 4098.4 4079.2 4090.3 4110.7 4177.1 4274.6 4358.5 4202.7 4092.7 4076.1 4104.8 4138.4 4148.5 4157.5 4123.3 4121.6 4126.1 4120.5 4130.2 4105.2 4171.4 4202.8 4181.1 4134.9 4136.2 4183.8 4155.9 4217.7 4242.8 4161.2 4088.3 4124.3 4090.8 4066.8 4081.1 4067.9 4048.3 4121.6 4208.1 4210.3 4229.2 4290.4 4383.5 4262.4 4103.9 4053.7 4062.3 4107.9 4118.8 4142.4 4116.8 4088.4 4157.8 4165.4 4191.1 4205 4190 4222.7 4229.3 4147.7 4101.2 4128.1 4149.6 4106.7 4047.8 4107 4128.3 4113 4075.1 4106.3 4106.2 4120 4150.5 4214.4 4297.5 4312.1 4254.6 4250.4 4239.7 4290.1 4269.7 4208.9 4126.7 4076.3 4029.9 3943 3952 4019.7 4073.4 4128.3 4203.6 4125 4089.3 4206.3 4242.1 4188.8 4189.8 4102.1 4085.4 4092 4071.6 4097.2 4078.9 4061.8 4096.8 4135.8 4141.3 4127.6 4207.5 4253.1 4224.4 4221.2 4210.2 4189.4 4145.7 4069.8 4083.2 4113 4079.8 3991.1 4012 4059 4094.6 4134.6 4159 4146.8 4128.8 4116.6 4191.4 4186.5 4116.5 4033.6 3927.8 3955 4031.4 4114.5 4152 4198.4 4321.8 4272.6 4274.4 4307.1 4194.4 4148.8 4101.9 4101.9 4117.6 4042.8 4023.2 4087.9 4144.4 4180.3 4126.8 4057.2 4073.5 4102.5 4094.7 4105.3 4087.1 4110.1 4170 4220.5 4190.8 4122.1 4125.1 4108.3 4087.7 4109.2 4124.1 4120.2 4115.3 4152.4 4249.3 4203.7 4161.9 4113.8 4079.8 4098.6 4104.9 4133 4130.8 4139.9 4125.6 4078.2 4069 4058 4077.1 4039.9 4006.7 4068.9 4220.2 4380.3 4391.4 4218.3 4142.7 4133.3 4129.4 4156.3 4171.4 4170.3 4140.6 4162.9 4202.3 4221 4202.9 4158.6 4161.3 4227.2 4289.2 4313.4 4275.9 4246 4199 4219.8 4234.4 4197.6 4109.8 4041.9 4133.6 4155.2 4134.6 4086.7 4075.4 4065.5 4111.6 4178 4259.8 4282.5 4266.3 4220.9 4212 4186.7 4178.1 4229 4218.7 4249.8 4345 4293.2 4046.5 3906 3963.8 4012.9 4030.1 4107.8 4115.1 4055.3 4047.5 4048.1 4105.8 4068.3 4112.7 4158.1 4025.1 3990.6 4051.8 4135.4 4148.3 4147.6 4189.3 4171.3 4233.2 4317.6 4307.3 4226.2 4137.2 4135.7 4124.2 4113.1 4115.9 4059.6 4138.7 4228.7 4197 4044.6 3950 3983.6 4039.8 4105.5 4167.3 4175.3 4155.1 4082.5 4106.6 4146.9 4139.7 4070.6 4017.5 4060 4067.3 4052.8 4068.6 4081.6 4114.8 4075.7 4093 4114.2 4119.3 4084.9 4152.4 4212 4183.9 4182.6 4189.9 4111.2 4064 4120.8 4171.5 4193.6 4134.9 4113.5 4088.8 4116.6 4118.4 4092.9 4184.3 4265.8 4203 4145.1 4103.3 4095.4 4096.7 4113.2 4073.7 4184.3 4287.7 4188.6 4018.2 3970.2 4018.5 4104.7 4108.8 4019.7 3966.1 4049.3 4094.2 4086.6 4140.5 4090.7 4061.6 4178.1 4222.5 4229.3 4243.3 4245.4 4287.3 4393.3 4510.3 4572.8 4638.7 4742.1 4807.3 4936.1 5018.6 5036.6 5039.3 5129 5317 5428.7 5551.3 5695.4 5768.6 5799.8 5839.9 5844.2 5849.8 5879.9 5824.3 5783.8 5818.8 5868.1 5813.1 5793.8 5690.5 5566 5405.8 5220.2 5003.7 4793.2 4565.1 4389.7 4272.5 4212.2 4163 4238 4199.3 4100 3957.4 3900.9 3790.8 3653.2 3655.8 3709.4 3744.7 3766.4 3708.8 3734.4 3817 3918.4 4023.6 4069.3 3917.3 3866.3 3854.8 3884.8 3910 3958.2 3962.1 4003.5 4055 4017.6 4012.9 4008.3 4074.8 4100.7 4098.5 4137.3 4090.2 4080.3 4115.8 4177.8 4222.3 4238.2 4212.3 4135.7 4174.4 4226 4161.4 4105.6 4156.8 4220.4 4197.6 4255.2 4249.5 4118.1 4160.2 4272.5 4313.5 4231.7 4105.9 4101 4054.1 4065.8 4159.5 4209.8 4228.8 4175.1 4115.5 4122.9 4171.3 4273.4 4283.4 4259.5 4215.1 4181.6 4237.9 4268 4229.2 4156.5 4131.4 4089.7 4046.1 4066.9 4152.2 4244.2 4278.4 4280.6 4319.4 4343.2 4334.4 4253.4 4256.1 4266 4125.4 4118.7 4068.6 4039.8 4115.8 4141.7 4092.5 4043.6 4060.4 4093.4 4143.2 4246.7 4289.8 4227.4 4228.1 4280.6 4275.6 4284.2 4352.6 4327.2 4192.3 4181.7 4272.5 4338.9 4305.9 4224.4 4248.7 4151.3 4106.4 4195.2 4177.2 4163.4 4190.7 4241 4326.7 4282.3 4212.1 4229.1 4221.3 4278.2 4327.5 4277.1 4293 4263.6 4198 4249.5 4279.7 4230 4183.2 4211.3 4311.3 4305.8 4256.2 4252.8 4146.8 4106.4 4104 4170.9 4286.8 4242.4 4190.1 4124.7 4183.7 4257.6 4253.9 4251.1 4253.4 4287.1 4322.3 4302.1 4286.3 4211.7 4149.7 4187.6 4218.4 4259.8 4269.9 4287.8 4280.5 4313.7 4326.7 4303.2 4293.5 4384.4 4419.9 4405.2 4424.1 4385.2 4270.1 4204.7 4219.9 4219.8 4283.6 4360.5 4369.9 4391 4380.2 4436 4490.8 4473.8 4440.7 4390.7 4306.5 4241.8 4345.5 4375.8 4242 4226.1 4279 4260.2 4231.1 4218.9 4205.9 4251.7 4396.8 4469.7 4387.5 4354.3 4359.2 4382.3 4378.1 4376.7 4398.7 4395.3 4363.9 4369.4 4382.9 4366.1 4341.7 4328.1 4355.2 4438.5 4494 4455.1 4438.9 4441.3 4460.7 4445.9 4426.4 4417.8 4341.7 4339.8 4415.8 4510.6 4492.7 4399.5 4467.3 4468.3 4476.4 4467 4406.4 4459.3 4532.3 4499.2 4428.9 4382.7 4352.5 4283.2 4298.3 4386.3 4389.8 4316.6 4267.8 4281.6 4304.4 4417.9 4476.4 4444.6 4465.5 4463.4 4467.4 4427.1 4347.5 4267.4 4207 4248.4 4245.1 4243.9 4215.4 4208.1 4202.7 4175.9 4252.6 4332.2 4285.1 4262.8 4253.1 4232.4 4250.5 4220.2 4205.5 4152.8 4139.4 4215.9 4249.2 4267.4 4238.3 4223.1 4208.6 4219.6 4248.2 4270.4 4264.3 4182 4163.3 4230.8 4298.6 4360.1 4369.4 4210.7 4036 4042.6 4083.4 4146.7 4190.7 4154.1 4133.7 4210.5 4181.6 4119.9 4161.5 4177.5 4167.7 4193.8 4293.7 4290.5 4232.1 4080.4 3979 4009.3 4008.9 4026.7 4119.3 4174.7 4203.6 4194.5 4191.9 4176 4140.5 4154.2 4144.5 4139.2 4114.2 4119.3 4175 4151.1 4130.8 4087.3 4070.2 4104.9 4092.1 4163.6 4241.2 4279.5 4288.1 4216.3 4172.9 4220.9 4265.2 4315.4 4257.8 4174 4038.8 4019.9 4148.8 4113.6 4046.2 4038.5 4134.1 4224.3 4220 4192 4119.2 4076.8 4088.6 4119.1 4116 4133.2 4177 4139.7 4110.3 4141 4114 4139.4 4199.2 4268.8 4334.1 4334.4 4327.4 4235.8 4183.1 4210.2 4199.8 4139 4090.3 4079.3 4094.7 4137.4 4155.2 4163.4 4185.5 4196.4 4216 4308.4 4297.3 4336 4357.1 4281.1 4286.2 4279.1 4340.8 4286.6 4133.8 4116.3 4056.6 4059.3 4103.3 4155.9 4139.7 4199.9 4274.3 4233.5 4157.6 4150.9 4220.9 4270.9 4251.3 4199.4 4073.7 4009.4 4100.4 4230 4268.3 4216.6 4104.2 4095.6 4123.8 4195.5 4238.3 4225.6 4190.7 4159.9 4171 4139.4 4177.2 4134.4 4088.3 4139.8 4198.8 4233.9 4191.4 4166.5 4188.4 4237.8 4282.4 4282.1 4248.6 4293.8 4289.4 4285 4210.8 4140.2 4107.9 4149.2 4223.1 4149.6 4160.5 4171.9 4167.5 4201.5 4201.8 4247.3 4214 4178.2 4227.5 4233.4 4197.6 4231.4 4241.6 4175.1 4066 4080.5 4109.3 4109.2 4095.6 4090.2 4119.4 4147.9 4206.4 4256.9 4204.8 4162.5 4190.8 4202.6 4181.2 4095.7 4069.4 4096.8 4132.1 4175.2 4161.7 4135.5 4095.5 4162.9 4163.4 4194.1 4232.6 4172.7 4090.6 4072.4 4208.7 4278.1 4235.9 4212.9 4170.2 4272.5 4237.3 4129.8 4144.4 4104.7 4050.4 4077.6 4163.1 4159.3 4094.2 4122.2 4227.1 4203.8 4198.5 4192.3 4166.6 4058.5 3986.5 4032.4 4074.7 4088.7 4052.7 4036.6 4025.9 4062.9 4165.6 4183.6 4132.4 4084.3 4094.7 4150.9 4198.7 4190 4166.8 4094.1 4076.9 4076.9 4075.7 4101.1 4096.7 4136.4 4195.8 4259.4 4248.8 4221.1 4246.8 4293.7 4240.4 4156.9 4151.5 4185.2 4168.9 4138.2 4075.9 4065.7 4073.2 4160.8 4278.4 4338.2 4321.2 4299 4347.9 4338.8 4214.2 4074.1 3978 3931.3 3922.4 3924.6 4025.2 4070.8 4068.7 4075.8 4034.1 4071.9 4110.5 4111.2 4110.4 4111.7 4128.9 4144.8 4156.5 4155.6 4139.4 4106.5 4071.2 4037.2 3997.6 3978.9 4042.9 4077.1 4111.4 4140 4204.7 4220 4179.1 4126.3 4165.8 4262.8 4274.7 4192.9 4159.7 4198.9 4225.7 4173.4 4106.9 4087.2 4066.6 4089.6 4096.9 4115.4 4157.4 4126.3 4127.4 4175.8 4196.1 4383.1 4499.1 4413.6 4266.9 4090.2 4000.1 3965.3 3979 3955.4 3995.5 4035.9 4094.5 4171.4 4209 4164.1 4152.4 4182.7 4204.4 4128 4117 4123.8 4079 4091.3 4096.8 4074.4 4153.5 4198.5 4221.2 4221.4 4170.2 4109.6 4059.6 4090.6 4175.3 4238.9 4117.1 4057.5 4036.1 4024.6 4093.3 4169.9 4288.4 4227.8 4127.3 4121.2 4145.4 4165 4227 4237.5 4280.7 4277.1 4231.7 4254.7 4278.4 4230.2 4177.4 4217.9 4213.7 4202.4 4205 4193.7 4226 4239.9 4283.5 4257 4163.8 4196.6 4213.2 4181 4182.9 4213.2 4173.3 4156.7 4193.3 4164.9 4111.1 4101 4152.8 4186.1 4157.6 4162 4124.4 4063.8 4125.1 4191 4205.8 4208.2 4151.7 4094.3 4099.7 4193.3 4324 4373.7 4313.5 4257.9 4165.7 4052.9 4072.5 4090.5 4112.4 4097.8 4118.7 4153.9 4177.7 4203.2 4196.1 4124.6 4071.5 4068.6 4072.7 4115.9 4095.7 4098 4096.3 4135.6 4142.3 4146.7 4136.6 4107.6 4096.4 4125.2 4113.7 4079.5 4062.9 4047.7 4130 4216 4193.2 4158.1 4113.1 4050 4066.8 4045.6 4030 4081.7 4087.2 4079.5 4152.8 4095.6 4058.5 4049.3 4028.7 4042.9 4055.9 4127.6 4154.5 4112.4 4123.1 4166.6 4246.7 4174.9 4091.6 4056.2 4083.8 4140.4 4174.1 4211.1 4174.3 4059.9 4038 4084.2 4071 4033.8 4042.4 4122.2 4137.7 4137.8 4160.5 4069.1 4104.7 4164.9 4314.6 4384.1 4178.8 4052 4003.7 4126.1 4087.5 4033.5 3992.2 3975.9 4148.6 4277.6 4307.4 4293 4245.7 4164.6 4122.6 4133.8 4174.8 4254.8 4340.6 4345.3 4332.6 4370.1 4430.2 4420.1 4463 4688.9 4902.8 4997.4 5055.2 5206.8 5312.6 5315.3 5417.2 5490 5548.9 5667.8 5768.9 5871.9 5957.7 5972.4 5910.3 5863.6 5905.3 5927.4 5945.3 5986.2 5991.3 6043.1 5995.9 5881.8 5732.6 5493.9 5227 4899.9 4694.9 4563.8 4436.8 4294.4 4107.5 3968.3 3901.1 3866.9 3852.2 3791 3728.5 3731.4 3782.9 3915.9 3872 3807.9 3745.9 3724.8 3781.8 3830.3 3875.6 3917.7 3999.1 4064.8 4058.5 4066.8 4108.6 4151.3 4183.3 4236 4316.5 4235.1 4151.8 4090.8 4037 4087.1 4129.3 4137.9 4097.5 4161.2 4252.9 4235 4234.7 4202.8 4115.9 4130.5 4236.4 4280.2 4268.3 4251.5 4226.4 4159.8 4227 4220.4 4165.8 4202.3 4127.7 4121.3 4115.8 4179.2 4191.5 4164.1 4211.5 4201.9 4168.7 4165.3 4151.3 4202.4 4195.1 4127.2 4091.8 4106.1 4136.7 4167.6 4197.8 4143.3 4181.4 4248.3 4202 4192.3 4237.7 4272.6 4285.5 4337.7 4264.1 4209.8 4205 4246.6 4198.3 4122.5 4048.3 4065.9 4160.4 4203.2 4218.8 4207.7 4204.3 4200.8 4231.1 4189 4141.6 4157.1 4113.3 4110.5 4176.3 4214.5 4202 4196.9 4219.6 4198.8 4239.3 4314.1 4306.3 4300.1 4311.1 4306.9 4241.5 4196.1 4199.2 4163.7 4120 4129 4152.3 4132 4113.4 4141 4177.9 4212.2 4294.7 4356.5 4316.4 4275.3 4306.9 4382.2 4339.4 4305.7 4237 4192.9 4218.8 4267.4 4226 4174.9 4157.3 4181.4 4254 4336 4327.5 4282.1 4281.7 4299.2 4323.8 4292.1 4316.9 4360.5 4390.9 4457.4 4447.3 4296.7 4162.6 4120.7 4146.5 4205.9 4256.6 4241 4234.2 4233.1 4265.9 4311.2 4312.8 4343.5 4349.5 4318.2 4382.9 4487.2 4460.4 4312.5 4193.5 4164.4 4160.4 4236.5 4265.8 4267 4277.2 4303.9 4354.3 4346.2 4327.4 4334 4300.5 4303.6 4327.6 4310.7 4271.1 4275.6 4348.6 4395.7 4371.1 4349.9 4303.8 4364.7 4501.8 4508.5 4484.6 4456 4408.1 4406.3 4390.4 4338.2 4311.3 4289.7 4272.7 4287.5 4333.4 4430.8 4516.2 4511.8 4485.5 4455.5 4418.2 4456.6 4410.4 4380.7 4384 4440.3 4412.3 4434.9 4466.1 4450.8 4433.7 4412.2 4415.9 4435.5 4465.5 4437.4 4392 4389.7 4425.8 4395.7 4408.4 4430.5 4377.2 4391.8 4400.7 4412.9 4418.8 4422.8 4474 4411.7 4373.4 4455.2 4456.9 4460.6 4482.7 4467.7 4465.1 4531.6 4470.6 4326.8 4292.7 4321.3 4377.7 4347.9 4348.2 4372.7 4391.2 4405.3 4402.5 4376.8 4333 4335.8 4337.3 4277.1 4244.9 4299.9 4343.6 4331.2 4295.4 4315.9 4277.7 4209.1 4247.4 4179 4185.4 4241.4 4241.5 4283.9 4292.6 4281.7 4166.8 4106.5 4118.9 4112 4100.9 4165.8 4170.7 4155 4095.8 4104.1 4162.5 4311.2 4379.2 4216.9 4160.7 4168.2 4204.6 4233.8 4201.2 4110.8 4142.4 4203.3 4186.4 4208.4 4180.1 4087.2 4065.8 4110.8 4184.9 4161 4125.2 4162.2 4139.6 4136.1 4168.7 4174 4151 4112.4 4081.4 4079.1 4136 4133.2 4075.3 4090.2 4158.9 4169.5 4157 4112.1 4147.4 4162.7 4145.6 4160 4138.1 4097.5 4065.6 4081.5 4094 4067.6 4136.6 4109.1 4129.7 4165.7 4215.6 4227.6 4209.3 4254.8 4215 4141.6 4166.3 4171.9 4152.2 4138.2 4143.8 4171.6 4231 4220.3 4188.5 4218.5 4151.8 4132.3 4155.7 4155.9 4234.8 4188.4 4095.2 4115.5 4159.2 4224.9 4128 4017.7 4070.3 4172.3 4151.2 4086.1 4070 4107.6 4152.5 4188.8 4215.1 4199.4 4185.9 4232.3 4241 4163.1 4179.1 4183.2 4159.2 4224 4203.5 4157.5 4110.9 4091.7 4144 4206.7 4250.8 4260.9 4235.7 4206 4129 4134 4140.8 4160.3 4139.5 4104.2 4113.8 4145.9 4134.3 4214.7 4204.2 4194.1 4209.5 4235.4 4246.9 4248.3 4243.7 4224.8 4195.5 4214.2 4251.5 4232 4149.2 4209.4 4192 4154.6 4060.5 4009.8 4093.9 4198.6 4200.5 4216.3 4252.4 4235.3 4235.6 4333.3 4389.4 4312.3 4213.5 4170.7 4212.8 4204.7 4099.4 4052.4 3986.1 4087.3 4159.1 4183.5 4206.5 4183.2 4124.5 4177.6 4220.2 4219.3 4178.1 4171.8 4111.3 4151 4180 4099.1 4092.7 4098.5 4104.9 4141.8 4228.6 4268.3 4187.7 4182.8 4185.7 4182.2 4182.2 4151.7 4145.8 4130.8 4154.4 4245.9 4240.5 4156.9 4117.8 4041.5 4051.8 4095.4 4192.5 4219.7 4228.8 4212.8 4185.4 4201.8 4183.1 4180.6 4140.1 4161.5 4218.1 4160.6 4101.7 4101.1 4062 4099.9 4178.3 4296.5 4263 4131.4 4103.9 4144.1 4172.8 4197.4 4224.6 4156.4 4053.6 4014.9 4072.7 4102.9 4118.1 4123.9 4051.5 3975.3 4074.2 4171.2 4178.3 4193.2 4246.3 4233.9 4143 4120.1 4090.1 4035.4 4101.1 4145.5 4131.8 4114.5 4110.1 4136.4 4082.5 4131.5 4210.4 4225.6 4255.8 4215.3 4245.3 4245.5 4230.7 4164.9 4049.5 4058.2 4106.4 4111.9 4006.3 3877.6 3924.3 4009.8 4084.4 4165.4 4169.6 4204.2 4169.3 4146 4160.9 4165.3 4173 4085.5 4087.9 4111.9 4078.5 4059.2 4084.2 4063.6 4025.3 4077.6 4163.8 4178.8 4232.8 4249.4 4279.1 4181.7 4117.6 4183.4 4167.5 4152.6 4147 4101.6 4088.9 4045.9 4100.4 4105.7 4111.3 4161.5 4177.7 4171.3 4158.8 4122.4 4135.4 4166.4 4161.8 4036.1 4022.5 4090.2 4117.5 4145 4152 4129.6 4160.9 4161.2 4236.7 4301.5 4244.1 4152.9 4235 4263.1 4145.8 4126.4 4109.7 4077.3 4115 4106.9 4101.6 4077.1 3929.2 3953.9 4078.5 4224.3 4246.5 4164.7 4075.8 4041.1 4099.3 4124.7 4118.1 4140.8 4112.3 4144.1 4147.4 4113.5 4105.1 4122.9 4146.4 4113.5 4224.4 4205.5 4131.2 4049.9 4087.5 4162.7 4179 4133.3 4087.9 4034.8 4044.1 4124.9 4218 4161.3 4113.9 4127.1 4111.6 4142.1 4181.1 4161.2 4233.9 4235.1 4142.9 4179.5 4182.4 4124.6 4012.7 4000.2 4067.3 4038.6 3998.3 3985.7 4023.5 4038.2 4097.6 4099.5 4113.2 4195 4165.3 4170.6 4179.3 4166 4158.4 4099.4 4044.8 4058.9 4075.7 4099.2 4070.3 4060.3 4060.7 4190.8 4270.9 4214.8 4187.3 4180.6 4212.8 4300.3 4265 4170.7 4039.6 4018.8 4170.9 4256.4 4239.2 4132.5 4091.9 4033.5 4030.8 4093.9 4140.8 4145.6 4231.4 4267.4 4208.1 4177.1 4127.7 4027.2 3972.6 4056 4060.8 4012.6 4019.9 4061 4100.1 4111.8 4175.9 4202.6 4204.2 4178.9 4164.2 4192.2 4185 4152.6 4137.6 4152.3 4119.9 3998 3982.8 4047 4023.4 4021.7 4077.6 4177.2 4238.7 4181.7 4126.9 4136.5 4186.3 4140.7 4126.8 4099.9 4031.3 4033.8 4067.6 4077.3 4071.8 4075.2 4147.3 4151.6 4218.4 4249.5 4170.3 4140 4097.5 4098.3 4106.8 4138.1 4109.7 4059.9 4112.8 4121.6 4088 4110.3 4067.5 4135.2 4199.3 4213.3 4212.3 4206 4211.4 4204.2 4193.1 4179.5 4154.6 4154.1 4130.6 4137.3 4145.3 4133.7 4080.3 4036.5 4093.7 4107.9 4164.3 4219.4 4260.6 4259.8 4133.3 4087.3 4127.5 4118.6 4156.3 4207 4174.6 4209.4 4180 4178.6 4139.8 4108.8 4150 4213.3 4230.9 4187.3 4181.7 4233.3 4247.8 4273.6 4256.2 4201.4 4173.8 4169.4 4157.1 4099.7 4078.3 4061.2 4067.4 4116.5 4150.5 4208.2 4239.9 4241 4295.1 4348.2 4292.5 4205.1 4101.6 4097.1 4184.2 4190.1 4111.5 4054 4007.1 4050.1 4154.2 4096.5 4131.5 4228.7 4224.2 4185 4163.9 4194.5 4134.5 4130.5 4076.4 4062.9 4103.1 4144.3 4125.4 4053.2 4071.4 4102.2 4101.9 4177.4 4206.3 4160.9 4096.8 4095.1 4213 4235.6 4204.5 4184.7 4189.6 4201 4190.5 4146.3 4099.6 4070.8 4157.7 4222.8 4363.5 4395.7 4283.2 4276 4235.1 4146.8 4045.9 4032 4022 3994.6 3997 4082.6 4149.8 4114.3 4039.4 4045.9 4018.9 4101.3 4193 4158.8 4103.2 4085.2 4203.8 4189.1 4078.6 3982.4 3978.1 4079.6 4137.8 4068.3 4002.5 3979.6 4035.1 4113 4196.8 4238.2 4227.2 4245.7 4229 4222 4264.4 4236 4224.3 4146.4 4102 4186.2 4150.1 4012.7 3951 4107 4225.8 4230.4 4187.1 4095.3 4049.9 4132.3 4278.9 4200.9 4037.3 4038.4 4039.6 4038.4 4065.3 4083.4 4160.7 4173.2 4173.2 4246.5 4339.8 4472.9 4477.7 4406.2 4442 4578.8 4720.7 4729.5 4705.3 4736 4811.7 4977.7 5148.6 5236.7 5326.9 5396.9 5517.1 5642.4 5750.1 5842.8 5901.1 5964.2 6000.5 6038.4 6008.3 5910.3 5875.4 5921.4 6018.7 6057.4 6026.7 5895 5715 5572.9 5329.2 5184.7 5030.3 4719.7 4482 4394.6 4304.2 4183.6 4062.3 3951.2 3804.2 3749.6 3751.3 3742.7 3772.1 3751.6 3810.4 3870.2 3924.8 3912.2 3925.1 4064.8 4189.2 4198.5 4081 4004.6 3938.4 3934.7 4004.5 4040.8 3994.6 4146.5 4370 4315.4 4162.2 4138.8 4218.2 4243.8 4184.2 4097.4 4107.6 4240.5 4243.9 4115.1 4017 4044.5 4119.6 4093.2 4074.4 4077 4079.9 4123 4211.5 4250.9 4201.9 4189.9 4196 4228 4282.7 4249.9 4217.9 4165.6 4206.7 4193.5 4180.4 4154.8 4112.7 4093.8 4144.7 4222.8 4290.7 4284.1 4211.2 4172.4 4195.3 4230.7 4206 4242.7 4265.6 4202.1 4126.6 4143.3 4185.8 4188 4126.7 4118.1 4198.8 4292.6 4272.2 4254.1 4317.2 4349.6 4386.1 4332.9 4264.4 4219.8 4164.1 4195.9 4214.3 4230.3 4259.3 4265.2 4172.9 4125.6 4209.8 4206.5 4135.1 4164.2 4168.4 4209.4 4244.2 4230.8 4157.8 4113 4169.2 4248 4237.3 4230.1 4222.5 4223.2 4232.9 4246.1 4255.3 4266.4 4302.8 4337.6 4307.2 4295.1 4305 4325.1 4272.5 4188.9 4219.1 4188.9 4180.2 4194.1 4213.9 4225.4 4291.6 4310.9 4252.7 4257.6 4275.6 4252.5 4224.9 4140.8 4153.8 4185.4 4217 4250.8 4257.4 4246.5 4268.7 4423.1 4388.8 4231.4 4286.9 4373.3 4363.3 4310.6 4366.2 4464.1 4417.1 4399 4277.5 4163 4180.1 4240.2 4215.9 4192.6 4260.6 4350.6 4366.6 4373.8 4360.9 4324.6 4318.2 4352.5 4381.5 4292.8 4292.1 4295.7 4334.3 4348 4302.7 4431.3 4511.1 4496.4 4391.5 4335.8 4378.5 4436.7 4395.9 4448.6 4444.5 4443.3 4416.2 4358.9 4316.6 4244.8 4264.2 4255.4 4259.4 4317 4385.4 4429.2 4402.7 4433.7 4404.2 4351.2 4390.5 4394.9 4451.1 4571.9 4616.8 4462.9 4452.4 4514.2 4455.5 4346.2 4339.7 4341.7 4351.4 4365.6 4430.7 4503 4523.8 4526.9 4475.4 4459.4 4426.2 4402.7 4382.7 4386.6 4410.8 4388.1 4372.4 4345.4 4321.4 4388.4 4484.2 4540.5 4536.7 4458.2 4325.6 4296.7 4395.4 4474.6 4497.3 4525.9 4500.5 4422.1 4421.6 4509.3 4516.8 4396.8 4347 4310 4345.8 4392.8 4385.1 4394.7 4393.1 4389.9 4387.3 4396.3 4391.1 4384.7 4384.6 4393.8 4472.7 4409.4 4318.7 4271.2 4310.8 4392.6 4469.5 4457.6 4360.7 4276.2 4294.5 4352.7 4332.1 4347.4 4299.9 4192.2 4248.7 4262.8 4241.8 4241.7 4312.1 4343 4356.8 4328.9 4301.5 4251.8 4225.4 4230.4 4278.9 4289.8 4316.7 4290.6 4157.2 4103.2 4169.2 4256.1 4289.9 4247.5 4201.8 4175.1 4226.8 4261.5 4277.5 4252.3 4230.3 4295.7 4235.4 4189.7 4152.1 4108 4127.8 4197.1 4275.2 4261.2 4257.9 4283.8 4293.7 4324.6 4314.2 4296.9 4289.2 4241 4176.9 4166.9 4168.6 4144.3 4076 4076.2 4153.6 4099.8 4132.9 4155.6 4191.2 4218.5 4205.6 4164.6 4125.9 4133.6 4175.5 4259.2 4327.1 4386.6 4314.4 4134.5 3996.8 3976.1 4016.5 4062.1 4105.2 4152.5 4148.8 4144.7 4172.3 4204.5 4231 4255.6 4366.4 4338.5 4250.2 4203.8 4097.5 4111.8 4189.2 4201 4247.8 4240.3 4246.3 4164.2 4177 4248.2 4241.9 4180.1 4176.4 4177 4162.1 4146.7 4153.9 4156.3 4209.7 4202.1 4165.8 4237.2 4293.5 4333.5 4312.6 4298.3 4317.1 4249.4 4107.7 4058.2 4195.3 4311.3 4399.1 4430.6 4320.4 4272.1 4258.9 4212.3 4251.1 4289.8 4233.3 4176.7 4271.1 4365.4 4315.4 4347.7 4304.9 4259 4267.1 4220.2 4206.2 4202 4184.9 4208.7 4197.7 4164.3 4173.2 4196.2 4213.9 4258.2 4279.9 4271.1 4252.8 4295.4 4267.6 4310 4351.6 4305.2 4262.8 4205.7 4211.6 4173 4059 3955.9 3980 4062 4168.6 4382.5 4437.6 4252.8 4173.1 4191.8 4216.9 4218.4 4213.9 4154.6 4090.3 4127.1 4180.6 4160.3 4120.9 4108.3 4158.1 4180.7 4232.5 4359.5 4315.9 4276.9 4292.9 4270.1 4282.8 4334.3 4309.5 4211.8 4186.8 4239.7 4236.8 4116.3 4069.7 4167.4 4212.4 4205 4197.2 4157.6 4165.4 4174.1 4185.6 4245.6 4284.4 4323.7 4267.9 4217.3 4224.6 4294.1 4338.8 4429.3 4480.6 4272.9 4071.3 4109.9 4161.4 4194 4189.1 4139.8 4095.6 4066.6 4132.2 4144 4035.7 4048.7 4044.7 4059.1 4071.2 4087.2 4106 4122.3 4177.5 4167.9 4143.8 4153.5 4197.6 4291.4 4286.7 4306.5 4323.7 4303.9 4355.7 4230.2 4123.1 4113.7 4169.3 4219.8 4226 4216.4 4226.1 4278.1 4299.3 4289.1 4268.3 4282.6 4296.5 4142.6 4069.8 4150.8 4188.8 4126.1 4063.6 4069.6 4127.7 4148.7 4189.5 4192 4199.3 4192.2 4139.8 4247.6 4371.8 4315.9 4256 4170.2 4142.1 4198.2 4170.2 4118.9 4086.8 4159.3 4179.9 4220.7 4228.1 4147.3 4102.2 4120.8 4186.6 4271.9 4301.1 4232.4 4172.8 4153.1 4168.6 4174.7 4205.4 4142.4 4092.5 4054 4073.8 4135.7 4178.6 4235.9 4245.1 4198.2 4144.7 4111.4 4143.8 4121.1 4089.5 4113.3 4091.4 4064 4034.2 4065.3 4113.7 4175.7 4276.9 4304.8 4239.1 4178 4239.1 4316.5 4281.5 4192.3 4038.8 4035.1 4079 4118.3 4080.8 4048.6 4126.7 4217.8 4216.8 4220.4 4238.4 4188.6 4139.3 4135.1 4146.3 4103.8 4090.1 4075.5 4162.9 4196 4210.8 4250.6 4252.3 4226.4 4208.2 4147.2 4117.4 4182.8 4181.7 4170.2 4162.3 4238.6 4319.2 4325.2 4203.4 4029.4 4063.5 4196 4240.4 4195.3 4097.7 4128.6 4174 4205.3 4228.7 4297.3 4385.8 4284.9 4175 4164.3 4208.6 4175.3 4161.7 4178 4136.3 4116.1 4088.5 4065.6 4079.9 4071.8 4136.1 4220.4 4218.7 4171.1 4199.6 4217 4121.9 4063.4 4091 4168.6 4197.8 4191.9 4188.2 4203.7 4183.2 4170.3 4262.9 4311.6 4219.3 4127.9 4125.7 4146.2 4159.8 4118.3 4111.9 4100 4055.7 4057.4 4081.1 4119.3 4108.1 4019.9 4059.9 4140.6 4286.1 4318.5 4224.7 4169.2 4148.5 4140.1 4137.8 4157.1 4185.2 4144.1 4177.7 4264.5 4208.2 4111.6 4073.9 4151.9 4194 4154.4 4144.6 4066.5 4068.5 4131.6 4137.4 4134.1 4079.5 4085 4043.2 4009.4 4076.5 4150.9 4141.2 4032.5 4059.1 4136.6 4145.6 4164.6 4172.6 4217.4 4207.3 4243.4 4288.7 4293.1 4226.7 4172.7 4049.5 4040.4 4110.4 4236.9 4236.7 4246.8 4197.2 4226.6 4234.7 4162.9 4209.4 4303.4 4270.2 4217.4 4149.4 4150.8 4092.1 4036.2 4123.5 4207.7 4246.3 4270 4224.9 4151.7 4154 4188.4 4244.7 4282.1 4319.8 4237.9 4183.7 4118 4129.8 4130.2 4074.1 4078.5 4137.5 4164.3 4139.6 4069.6 4107.9 4174.3 4264.3 4332.9 4329.2 4260.6 4248.5 4291.1 4275.7 4271.9 4243.1 4148 4142.4 4217.4 4240 4220.6 4190.5 4224.8 4243.3 4247 4231.7 4232.6 4220.8 4219.4 4199.6 4162.1 4167.6 4197.9 4209.8 4181.4 4188.4 4126.2 4091.5 4059.5 4087.8 4084.4 4215 4319.6 4256.6 4217.4 4204.8 4181.3 4237.4 4262.9 4240.8 4160 4155.2 4149.1 4076.4 4022.9 4016.3 4121 4160.3 4228.3 4242.1 4146.6 4104.1 4084.4 4095.7 4153.6 4144.7 4117.3 4106 4077 4074.1 4113.4 4175.5 4166.8 4117.3 4106.3 4152.6 4178.3 4091.5 4071.7 4120.9 4165.9 4287.1 4258.8 4318.7 4236.9 4113 4058.3 3990.4 4058.7 4084.1 4126.7 4164.2 4107.6 4103.2 4141 4223.4 4335.4 4318.3 4267.2 4162.3 4131.3 4110.4 4126.5 4136.8 4109.8 4067 4049.7 4023.4 3974.4 4014.9 4135.4 4235.2 4268.8 4316.6 4243.4 4183.6 4160.9 4200.1 4196.1 4107.1 4131.8 4155.1 4133.5 4102.7 4036 4124.7 4188.5 4160 4140.6 4124.6 4150.8 4251.5 4223.8 4108.3 4089.3 4103.3 4124.7 4087 4077.2 4103.1 4064.2 4101.2 4318 4388 4362.5 4373.4 4422.3 4359.8 4305.8 4381 4466.8 4477.5 4404.6 4340.4 4405.7 4537 4680.1 4767.5 4823.9 4985.4 5097.1 5252 5338.1 5413.1 5551.2 5694.1 5832.6 5931 5956.7 5921 5773.2 5719.1 5752.9 5815.1 5849.6 5808.7 5849.9 5981.8 6009.1 5859 5631.2 5437.4 5266.4 5012 4776.4 4484.1 4353.3 4205.6 4145.8 4076.8 3972 3880.4 3780.8 3743.1 3799.1 3839.3 3837.4 3878.8 3844.6 3822.6 3857.1 3873.1 3863.8 3847.6 3724.9 3733.3 3888.5 4060 4150.2 4082.4 4036.9 4112.7 4166.3 4259.9 4324.4 4295.5 4173.2 4104.5 4182.4 4229.4 4151.8 4077.5 4097 4186.9 4179 4096.2 4059.1 4078.4 4125 4161.1 4185.9 4231.2 4283.2 4253.8 4232.2 4293 4289.8 4243.2 4211.3 4204 4132 4119.5 4177.9 4216.9 4179.6 4181.6 4197 4348.8 4335.4 4216.9 4185.1 4179.1 4226.5 4266.7 4279 4203 4086.4 4083.2 4113.8 4114.8 4138.6 4119.4 4145.2 4151.3 4147.5 4226 4261.9 4281.3 4292.7 4295.6 4336.4 4328 4306.2 4257.5 4193.3 4167.5 4169.5 4205.8 4201.4 4249.9 4291.1 4299.5 4313.3 4319.3 4339.4 4276 4176.6 4161.1 4057.7 4083.5 4194.4 4242.5 4257.9 4279.8 4224.9 4207.4 4149.8 4172.1 4276.6 4246.3 4173.3 4269.8 4239.3 4209.9 4199.3 4176.2 4199.1 4163.8 4163.1 4211.5 4246.7 4287.1 4266 4226.2 4221.3 4263.9 4348.4 4358.6 4291.7 4270.6 4280.3 4307.1 4226 4159.5 4151.2 4160.4 4245.1 4305.5 4291.7 4254.7 4219.5 4204.3 4260.7 4399.5 4426.3 4413.9 4422.4 4425.6 4434.8 4409.1 4376.6 4299.8 4217 4173.3 4158.7 4167 4166.1 4194.9 4274.8 4307.3 4254.9 4181.3 4193.6 4383.2 4644.9 4588.6 4333.3 4253.8 4198.1 4183.8 4205.6 4273.6 4320.1 4347.3 4309.3 4289.7 4246.9 4303.4 4395.2 4397 4343.1 4277.5 4332.1 4388.1 4283.1 4247.4 4296.8 4336.7 4336.3 4339.1 4345.5 4329.2 4329.5 4353.5 4431.1 4481.4 4484.5 4452.6 4466.8 4534.7 4553.4 4435.5 4410.3 4365.4 4322.4 4389.9 4441.6 4446.8 4345.9 4408.6 4501.9 4615.2 4699.4 4578.2 4530 4593.8 4594.3 4479.3 4447.4 4467.1 4466.2 4433.3 4423.4 4376.6 4333.1 4307 4297.5 4332.2 4426.7 4491.2 4458.5 4456.3 4527.8 4669.1 4671.1 4563.8 4549.7 4454.4 4362.8 4314.3 4248.7 4269.2 4260 4291 4362.9 4385.6 4434.5 4451.3 4444.9 4435 4442.1 4479.4 4373.4 4353.1 4341.9 4348.5 4389.7 4397.7 4406.8 4395.2 4412.9 4405.3 4341 4376.9 4392 4391.4 4391.8 4357.5 4378 4375.6 4378.5 4342 4294.4 4207.7 4170.4 4260 4283.1 4349.2 4470.8 4492.1 4459.6 4358.7 4254.8 4200.7 4152.1 4246.9 4337.5 4313.1 4237.4 4169 4107.5 4109.2 4130.9 4172.5 4196 4275.8 4299 4269.8 4245 4208.3 4273.7 4335 4257.3 4215.5 4223.6 4226.1 4174.6 4154.7 4174.8 4185.6 4140.6 4120.4 4117.1 4066.9 4118.3 4199.7 4215.8 4211.8 4178 4187.4 4211.9 4179.6 4126.7 4101.3 4142.1 4164.1 4204.3 4246.3 4187.4 4223.4 4315.9 4362.1 4307 4229.5 4096.8 4034.6 4092.4 4163 4184.8 4177 4141.1 4121.9 4084.2 4072.9 4114.9 4156.5 4167.2 4164.8 4187.6 4270.3 4318.7 4302 4225.6 4221 4321.1 4366 4298.6 4169.1 4167 4212.2 4215.6 4187.9 4202.6 4241.2 4248.8 4207 4229.3 4139.5 4112.1 4207.8 4267.6 4292.5 4200.3 4122.9 4065 4038.2 4061.4 4066.3 4172.7 4259.3 4223 4279.1 4299.1 4275.9 4213.9 4189.1 4231 4259.3 4274.6 4186.7 4136.5 4155 4129 4142.6 4122.1 4145 4179.5 4159.4 4169.9 4175.9 4216.2 4241 4298.4 4410.8 4380.8 4302.3 4310.5 4264.2 4241 4234.3 4257.7 4277.7 4184.3 4106.4 4110.3 4128.6 4127.1 4201.6 4187.9 4188 4201.8 4182 4197.4 4202.3 4167.7 4127.4 4154.5 4231.4 4286.8 4247.9 4171.6 4119.4 4198.3 4208.2 4289 4371.4 4444.2 4486.4 4395.3 4323.5 4232.9 4140.2 4132.1 4099.5 4109 4133.8 4154.6 4146.8 4144.2 4166 4184.2 4220.9 4250.7 4260.1 4334.3 4356.3 4349 4380.8 4346.4 4323.1 4236.4 4224.3 4268.7 4239.2 4230.5 4191.4 4147.5 4129.2 4226.8 4298.4 4207.2 4124.8 4152.2 4192.7 4259.5 4209.9 4160.1 4095.6 4068.9 4129.7 4187.9 4190.3 4192.6 4226.7 4309 4280.6 4331.9 4292.7 4163.1 4148.7 4212.6 4245.1 4186.5 4196.4 4168.1 4112.2 4139.2 4118.1 4117.4 4188.8 4150.7 4107.9 4091.6 4130.6 4213.7 4174.1 4103.7 4172.1 4239.9 4209.4 4214.6 4177.7 4093.2 4056.9 4055 4068.6 4136 4172.5 4207.3 4220.2 4288.5 4397.1 4388.1 4330.6 4227 4149 4159.2 4183.4 4150.2 4060.9 4027.4 4050.3 4002.4 4088 4185.9 4252.8 4335.2 4312.3 4253.2 4218 4140.2 4126.1 4284.2 4334.1 4247.2 4181.4 4072.8 4047.5 4153 4213.1 4192.3 4104.6 4066.7 4047.3 4075.8 4183.3 4250.8 4220.1 4179 4239.9 4274.2 4221.5 4184.6 4133 4126.4 4189.3 4187.6 4136.7 4098.2 4122.3 4177.3 4246.8 4287.6 4238.8 4198.5 4243.5 4259.2 4239 4204.8 4253.6 4188.6 4184.7 4208.7 4167.7 4143.5 4149.6 4121.7 4151 4192.8 4214.2 4256.5 4200.3 4165.7 4221.2 4235.4 4172.2 4110.2 4089.5 4075.8 4144.4 4167 4203.7 4192.6 4145.5 4126.6 4137.8 4197.1 4229.7 4162.1 4141.2 4160.2 4225 4255.9 4215.7 4169.3 4155.9 4184.7 4100.5 4112.3 4111.9 4052.4 4157.1 4190 4146.9 4185.6 4187.7 4262.5 4274.4 4222.9 4168.9 4161.6 4132.1 4152.2 4186.7 4211.8 4219.9 4269.9 4329.7 4332.6 4259.2 4258.6 4243.6 4143.3 4131 4189.7 4246.2 4209.4 4112.1 4099.6 4116.9 4125.6 4117.8 4084.5 4062.5 4103.2 4167.2 4206.2 4219.8 4260.1 4293.6 4316.2 4320.9 4352.3 4354.3 4347.5 4426.7 4357.2 4114.3 4086.5 4194 4206.2 4166.2 4103.8 4103.6 4177 4224 4238.5 4321.8 4286.9 4241.9 4254.1 4355.9 4286 4175.1 4148 4163.4 4215.1 4208.9 4109.5 4168.6 4281.7 4288.1 4200.5 4131.4 4160.2 4206.6 4224.3 4276.7 4262.7 4250.5 4215.9 4214.1 4267.8 4228 4198.5 4124.4 4152.7 4179.3 4139.8 4183.9 4161.6 4152.2 4200.9 4191.9 4186.5 4159 4165.1 4143.1 4092.9 4115.5 4153.1 4213.4 4211.7 4153 4141.9 4138.9 4184.8 4220.3 4208.8 4243.3 4360.5 4343.3 4294.3 4336.4 4286.3 4129.2 4135.9 4157 4055.6 3983.6 4001.5 4050.7 4091.5 4118.2 4140.7 4130.6 4104 4159.8 4206.8 4174 4179.9 4137.6 4062.8 4051.2 4052.3 4052.8 4071.6 4108.4 4141.5 4125.6 4126 4218 4217.2 4180.3 4225.7 4191.1 4172.1 4229.4 4285.4 4142.2 4020.9 4082.3 4127.8 4097.8 4077.4 4065.5 4048.5 4042 4062.7 4108.1 4123.6 4101.8 4185.3 4224.3 4213.1 4260.2 4201.7 4194.2 4293 4252.7 4245.4 4270.4 4291.4 4485.2 4615.3 4677.3 4727.7 4687.8 4739.5 4823 4783 4796 4845.8 4919.5 5075 5225.8 5391.2 5589.6 5690.2 5804.4 5836.4 5885.1 5969.1 5968.3 5943.8 5941.8 5984.9 6005.6 6044.4 6135.4 6068.8 5985.8 5912.9 5739.6 5485.1 5269 5134.9 4979.5 4778.7 4613.3 4432.5 4292 4227.8 4186.2 4160.2 4038.7 3896.4 3795.6 3711.1 3713.2 3755.2 3771.9 3731.1 3701.6 3755.5 3812.4 3959.5 4034.3 3992.8 3993.7 4070.4 4203.3 4322.8 4251.2 4025.3 3837.5 3861.3 3974 4145.1 4218.9 4135.2 4126.8 4214.9 4295.7 4316.1 4267 4284.9 4251.1 4281 4262.1 4206 4188.4 4102.9 4083.8 4120.6 4182.1 4174.7 4106.4 4161.5 4220 4235 4224.2 4232.3 4348.8 4303.3 4326.6 4336.3 4281.1 4190 4137.8 4144 4206.9 4254.8 4219.7 4179 4219.7 4257.8 4278.6 4379.7 4395.6 4286.7 4290.2 4379 4447.5 4276.8 4167.4 4131.2 4117.9 4152.6 4253.2 4292.9 4264 4219.9 4190.2 4179.5 4257.3 4304.4 4313.7 4369.2 4408.8 4421.9 4256.5 4150.5 4115.9 4138.5 4156.5 4124.6 4171.1 4227 4310.2 4331.8 4357.9 4391.5 4315.7 4319.8 4357.1 4338.3 4299.2 4205.2 4220.2 4173.6 4197.7 4242.9 4197.5 4180.1 4180.3 4184.1 4222 4270 4296.1 4283.3 4253.4 4236.6 4256.7 4331.7 4351.4 4412.3 4410.1 4271.4 4300.6 4347.8 4316.6 4306.1 4277.4 4295.6 4389 4458.8 4453.4 4334.2 4308.7 4341 4429.3 4431.4 4385.8 4392.8 4333.8 4362.6 4462.6 4539.6 4411.3 4222 4154.2 4141.1 4223.9 4290.4 4311.7 4391.7 4418.9 4400.8 4366.5 4286.2 4262.7 4317.6 4408.8 4413.8 4407.6 4406.3 4294.5 4236.2 4220.6 4271.5 4336.1 4318.6 4284.1 4282.9 4310.4 4309.4 4373.3 4361.3 4298.6 4272.4 4348.3 4513 4502.2 4397.1 4391.5 4375.7 4443 4483.4 4541.2 4509.3 4463.3 4410.5 4347 4364.9 4433.3 4496.6 4552.3 4572 4478.5 4373.1 4257 4302.4 4360.4 4431.9 4498.7 4453.6 4399.7 4408.3 4450.7 4518.2 4480.9 4476.2 4478.2 4403.8 4369.6 4367.1 4374.6 4405.7 4444.4 4450 4474.4 4529.9 4567.9 4615.5 4592.2 4536.7 4535 4526.2 4548.5 4529.5 4524.5 4489.5 4446.9 4444.6 4431.3 4476.9 4536.3 4565.2 4569.7 4569.8 4546.5 4514.1 4515.3 4551.3 4614.9 4671.5 4568.1 4420.1 4394.5 4452.7 4467.9 4498.1 4548.4 4572.9 4559.1 4567.2 4519.1 4397 4337.3 4413.2 4528.6 4643.8 4595.7 4377.5 4221.8 4217.8 4238.9 4175.8 4173.5 4157.9 4174.5 4202.4 4251.6 4276.5 4294 4316.1 4287.6 4296.1 4339.2 4332.4 4315 4300.9 4338.3 4313.5 4259.3 4221.7 4159.6 4149 4176.5 4275.4 4318.6 4289.1 4274.6 4303.2 4346.9 4380.6 4358.3 4300.2 4226.1 4208.5 4259.2 4268.7 4245.7 4201.5 4169.8 4163.7 4199.2 4307.3 4406.9 4390.8 4283.9 4329.4 4467.9 4413 4238.6 4157 4202.1 4294.7 4261 4207.1 4204.6 4175.3 4147.2 4245.2 4367.7 4365 4384.2 4404.4 4331.5 4295.8 4318 4394.3 4387.5 4374.5 4367.6 4293 4264.5 4201.8 4115.9 4051 4011.4 4084.7 4107.9 4123.8 4108 4129.6 4168.4 4135.5 4125.3 4114.9 4101.2 4135.7 4158.9 4117.7 4081.4 4113.2 4170.8 4161.6 4198 4235.2 4249.4 4252.5 4263.5 4323.9 4260 4199.6 4199.5 4183.1 4214.5 4242.7 4222.7 4201.2 4258.1 4330.1 4279.7 4287.7 4259.7 4222.6 4255.9 4318.8 4297.5 4288.7 4279.9 4259.6 4220.3 4265.1 4249.1 4215.2 4261.5 4232 4221.3 4157.9 4175.3 4273.8 4266.6 4278.8 4353.8 4382.4 4353.8 4298.3 4261.1 4240.9 4288.1 4319.4 4339.1 4318.6 4281.6 4314.6 4323.1 4296.7 4249.4 4253.2 4345.1 4502.2 4459.6 4371.2 4297.1 4257.7 4195.7 4186.1 4190.7 4182.7 4203.2 4197.3 4220.1 4240.9 4261.7 4289.6 4268.6 4309.8 4415.5 4432.1 4387.5 4291.6 4204.3 4172.9 4193.4 4228.4 4231.1 4245.7 4228.6 4256.8 4241.7 4265.4 4329.4 4326.6 4324.9 4314.8 4331 4284.9 4199.1 4151.9 4155.4 4164.9 4207.3 4211.4 4169 4140 4163.3 4225 4240.3 4272.8 4340.9 4353.3 4369.6 4338.8 4398.8 4400.7 4337.5 4313.2 4283.9 4304.3 4306 4251.6 4223.5 4172.9 4137.6 4121.7 4203.1 4397.6 4426 4356.7 4311.4 4302.5 4205.4 4153.4 4129.4 4186.4 4194.7 4157.1 4108.6 4111.1 4126.3 4228 4239.4 4207.7 4196.5 4217.1 4267.5 4282 4342.7 4314.7 4260.3 4243.6 4154.7 4158.4 4206.5 4233.1 4219.5 4213 4277.1 4308.4 4329.4 4311.2 4244.5 4206.2 4179.9 4250.2 4238.3 4169.8 4188.3 4193.4 4150.7 4154.5 4174.6 4134.4 4086.5 4121.1 4201.4 4275.1 4327 4307.6 4316.5 4309.8 4246.8 4244.2 4272 4305.5 4240.6 4214.6 4183.2 4171.7 4185.2 4165.2 4262.2 4339.2 4360.5 4416.5 4505.2 4562.3 4534.8 4324 4236.9 4184.9 4227.8 4169.5 4039.4 4001.6 4041.9 4108.7 4112.5 4147.7 4177.7 4208.9 4259 4277.9 4287.2 4234.7 4233.7 4313.8 4341.3 4247.4 4119.2 4117.7 4218.8 4235.7 4218.7 4222.6 4159.5 4152 4205.2 4286 4248.9 4242.2 4275.1 4300.4 4318.6 4255.3 4234.1 4153.1 4109.4 4158.2 4286.9 4335.7 4232.9 4157.3 4144.5 4165.7 4244.1 4247.4 4238.1 4227.4 4284.1 4290.5 4253.9 4267.1 4266.6 4246 4246.6 4249.4 4269.4 4238.3 4232.3 4174.5 4144.1 4308.6 4490.1 4324.3 4172.7 4180.5 4253.1 4384.5 4500.3 4476.5 4341 4266.3 4203.7 4197.6 4282.3 4277.4 4325.7 4420.5 4468.7 4437.7 4441.1 4529.3 4456.3 4336.8 4276.3 4262.9 4262.3 4210.3 4175.6 4189.2 4193.5 4175.4 4166.5 4235.8 4217.2 4252.6 4338.9 4397.5 4445.5 4418.5 4346.7 4301.6 4232.7 4240 4233.5 4218.9 4288.8 4289.6 4255.6 4273.5 4289.3 4253.5 4255.4 4255.1 4243.9 4260 4301.3 4344.6 4405.7 4401.3 4365.8 4262.9 4182.7 4234.4 4317.6 4319.9 4205.7 4162.1 4250.3 4426.8 4512.3 4410.6 4231.2 4216.5 4206.6 4256.3 4328 4436.5 4353.3 4219.8 4222.8 4217.4 4168.6 4105.5 4096.4 4126 4140.3 4184.8 4235.1 4338 4358.5 4340.9 4269 4218.4 4267.2 4225 4205 4144.3 4140.8 4143.4 4098.1 4115 4238.2 4331.1 4362.6 4342.3 4273.9 4293.9 4309.4 4302.2 4310.6 4340.1 4348.9 4179.6 4092.3 4176.5 4242.1 4203 4099.7 4096.8 4137.9 4200 4287.8 4268.8 4269.8 4246.1 4246.2 4218.7 4206.5 4190.7 4079 4101.9 4290.6 4358.5 4173 4096.3 4142.2 4157.5 4168.9 4189.3 4200.8 4225.2 4299.1 4317.2 4282.8 4253.8 4264.3 4279.5 4240.2 4142.4 4076.2 4060.3 4073.5 4119.8 4138.1 4185.9 4204 4233.1 4255.3 4288.2 4355.1 4341.7 4373.5 4394.1 4369.4 4416.1 4511.3 4558.2 4557.6 4450.8 4490.1 4575.7 4636.1 4795.1 4906.4 4987.9 5139.1 5255.9 5324 5389.9 5524 5581.6 5722.5 5864.6 5925.3 6015.3 6117.4 6069.9 6051 6047.4 6095.6 6149.3 6140.4 6097.5 6088.5 6220.6 6273.9 6198.6 5943.6 5576.2 5315.2 5061.2 4793.5 4554 4365.8 4256.4 4189.7 4165.7 4077.2 3944.3 3885.1 3870.5 3887.8 3835.9 3827.9 3825 3742.7 3800.2 3924.4 3972.7 3901.5 3887.2 4068.8 4180.8 4267.3 4296.9 4244.4 4178 4242.8 4303.1 4329.8 4327.9 4313 4315.5 4323.6 4317.2 4284.7 4253.5 4198.8 4153.1 4207.4 4321.2 4309.4 4274.2 4341.8 4402.3 4476.9 4444.7 4262.6 4152.5 4151.5 4215.3 4197.4 4198.1 4215 4185 4200.2 4216 4255.8 4335.9 4257 4283.9 4324.4 4392.1 4394.1 4322.7 4294.8 4225.5 4215.8 4251.5 4294.7 4289.6 4268.5 4237.9 4219.5 4202.6 4255.9 4310.3 4336.4 4353.5 4356.4 4371.7 4359.9 4336.9 4282.4 4288.5 4303.1 4281 4292.9 4308.3 4258.8 4252.5 4309.6 4369.3 4350.8 4300 4399.5 4438.5 4387.9 4315.9 4293.2 4278.7 4309.9 4390.1 4358.5 4421.6 4468.4 4381.2 4290.1 4307.5 4400.9 4467 4454.2 4561.7 4569.8 4495 4272.9 4178.7 4187.1 4212.1 4308.8 4302 4285.6 4249.6 4225.1 4318.4 4332.5 4344.4 4306.9 4232.6 4212.8 4218.8 4298.6 4299.4 4282.3 4273.3 4290.7 4307.7 4297.8 4273.5 4264 4306.6 4368 4364.3 4390.2 4381.6 4367.6 4370.6 4381.3 4427 4424.2 4402.6 4391.6 4341.1 4338.7 4351.4 4370.1 4399.5 4337.4 4376.7 4411.4 4465.4 4491.1 4479.3 4519.1 4499.8 4500 4475.3 4398.1 4326.6 4277.2 4350.3 4398.5 4354.1 4364.2 4390.5 4405.3 4417.4 4436.9 4471.2 4467.5 4471.9 4505.2 4394.9 4444.8 4518.1 4573.6 4635.7 4596.1 4513.8 4423.3 4400.4 4364.1 4325.4 4340.2 4401.3 4504.8 4531.6 4505.6 4486.8 4521.4 4596.5 4606.6 4526.8 4395 4356.3 4420.6 4466.3 4443.9 4434.2 4452.6 4463.4 4457.7 4484.7 4526.5 4588.2 4642.5 4581.3 4635.6 4673.8 4568.8 4540.7 4520.4 4516.4 4480 4454.7 4419.4 4421.5 4438 4467.8 4600.7 4621.1 4580.7 4587.4 4595.5 4664.3 4711.3 4663.4 4604.2 4527.5 4513.6 4503 4493.3 4415.6 4370.3 4417.1 4473.5 4566.7 4611.2 4554.6 4521.5 4542.1 4576 4599.1 4615.9 4575.5 4537.3 4539.1 4626.7 4759.7 4820 4762.7 4535.7 4266.9 4296.4 4398.7 4445.8 4445.5 4439.1 4514 4494.5 4527.2 4563.6 4397.7 4236.6 4218.5 4253.7 4232.7 4268.3 4358.6 4418.5 4405.5 4377.7 4357.5 4289.7 4287.2 4334.6 4370.9 4366.5 4343 4303.9 4270.3 4243.4 4239.8 4334.6 4341.5 4344.3 4322 4306.5 4302.8 4315.4 4304.7 4265 4290.8 4411.9 4402.8 4332.7 4289 4240.4 4257 4237.5 4229.4 4231.3 4231.1 4250.6 4339.1 4411 4329.6 4303.4 4290.8 4241.9 4374.4 4328.2 4327.4 4390.4 4323.8 4256.3 4195.7 4201.9 4185.5 4189 4238.3 4352.7 4471.8 4494.7 4418 4283.7 4232.2 4305.6 4341.9 4257.7 4094.3 4021.5 4103.5 4233.5 4285.8 4231.5 4195.6 4263.7 4236.5 4241.5 4289.1 4277 4260.2 4269.3 4302.7 4281.1 4261 4219.7 4190.7 4220.9 4231.6 4218.7 4217 4180.6 4225.8 4306.3 4375.7 4374.9 4318.9 4325.1 4414.1 4547.6 4458.7 4331.6 4321.9 4244.6 4212.5 4237.2 4214.2 4169.9 4272.6 4366.3 4338.9 4331.9 4236.2 4167.6 4255 4281.8 4249 4265.1 4314.7 4290.1 4247.1 4265.9 4328.3 4296.9 4213.5 4179.2 4235 4317.4 4409.6 4485 4419 4262 4190.4 4182.5 4252.5 4285.5 4262.7 4188.1 4198.4 4248 4292.1 4383 4415.8 4439.5 4411.4 4411.6 4510.1 4500.5 4333.3 4236.4 4216.6 4246.6 4376.4 4530.8 4471.9 4337 4254.9 4220.2 4259.8 4330.4 4327 4225 4191.5 4284.8 4281.3 4292.5 4318.3 4355.1 4388.9 4313.8 4297.9 4318.7 4327.5 4336.9 4371.4 4378.1 4319.7 4251.9 4331 4370.9 4303.3 4332.9 4300.7 4260.5 4230.4 4287.2 4273 4272 4240.5 4157.2 4154 4182.2 4181.8 4183.1 4232.8 4280.6 4305.5 4298.2 4267.1 4207.8 4233 4269.2 4291.2 4260.2 4225.5 4201.5 4232.5 4220.6 4248.9 4317 4316.4 4290.6 4299.8 4320.2 4422.6 4440.8 4380.2 4377 4268.5 4247.4 4339.8 4481.8 4412.8 4250.8 4226.6 4227.6 4235.7 4180.4 4127.7 4204 4280.3 4376.9 4368.9 4371.6 4399.7 4358.1 4294.5 4268.4 4281 4328.6 4307.4 4214.6 4138.7 4110 4152.3 4091.7 4151.7 4226 4277.2 4408 4411.1 4265.6 4249.4 4283.5 4335.6 4332 4286 4142.5 4108.6 4146.7 4182.7 4211.3 4212.8 4307.9 4298.2 4245.5 4256.4 4224 4230.6 4263.7 4305.2 4428 4362 4300.9 4169.1 4109.1 4181.4 4221.1 4256.8 4226.4 4192.6 4247.3 4334.4 4410.4 4370.7 4248.3 4245.3 4300.9 4353.7 4331.5 4236.5 4182.1 4170.6 4200.3 4165.9 4163.9 4164.5 4172.7 4244.4 4294.3 4350.5 4357.2 4321 4314 4300.3 4318 4305 4296.5 4254.7 4211.8 4268.7 4353.3 4283.9 4254.1 4256.7 4253.1 4214.4 4174.4 4229.9 4273.6 4292.5 4272.3 4283 4312.7 4401.5 4379.8 4218.6 4141.2 4213.8 4205.8 4160.9 4121.7 4200.5 4235 4259 4255.4 4298.6 4294.9 4271.5 4334.8 4405 4387.2 4255.2 4187.4 4222.6 4245.6 4284 4276.7 4239.9 4270.8 4270.5 4297.3 4350.8 4322.7 4317.6 4341 4274.3 4268.9 4259.2 4233.6 4267.2 4212.7 4118.8 4148.3 4210.5 4225.5 4185 4180.5 4168.8 4240.7 4307.6 4271.6 4236 4261.4 4356.7 4276.2 4196.9 4181.1 4196.5 4222.8 4215 4220.9 4250.5 4169.5 4119.4 4170.6 4241 4263.5 4206 4199.9 4247 4295.1 4343.1 4282.4 4175.1 4175.7 4260.1 4278.3 4195.3 4137 4179 4247.4 4285.7 4307.5 4344.9 4337.4 4332.8 4362.5 4416.6 4382 4303.9 4233.1 4315.3 4406.6 4398.8 4303.6 4219.6 4171.3 4318 4393.3 4415 4392.1 4367.4 4323.5 4334 4367.5 4344 4318 4293.8 4296.1 4258.2 4208.2 4278.9 4329.9 4308.2 4317.4 4356.3 4419.3 4449.4 4411.4 4392.7 4358.5 4331.1 4264.5 4389.9 4403 4344.5 4204 4191.3 4266 4319.4 4296.1 4285.2 4276.6 4358.5 4399.6 4366.3 4249.7 4174.7 4234.2 4286.7 4236.9 4172.4 4173 4305.2 4375.1 4298.2 4226.2 4172.4 4195.6 4249.3 4312 4318.1 4294.4 4207.2 4213.6 4288.9 4380.9 4319 4245.5 4161.9 4157.3 4210.5 4186.3 4194.7 4223.4 4230.3 4214 4337.5 4422 4387.2 4344.9 4333.4 4372.6 4373 4308.2 4253.4 4228.7 4292 4336.8 4293.2 4179.8 4215.9 4277.7 4335.8 4356.1 4389.2 4362.7 4408 4472.6 4348.5 4182.7 4077.3 4075.3 4038.3 4048.1 4116.8 4142.9 4139.5 4134.9 4142.1 4225.3 4317.1 4336.3 4357.5 4343.3 4316.3 4319.8 4349.3 4308.8 4207.1 4108.7 4066.6 4094.9 4201.6 4254.7 4247.6 4232.7 4281 4308.6 4381 4395.1 4329.1 4303.8 4274.3 4344.9 4377.1 4320.1 4292.2 4336 4294.2 4144.3 4086.8 4097.7 4084.1 4091.2 4150.1 4266.2 4416.4 4423.6 4379.1 4364.5 4423.3 4529.4 4564.9 4512.8 4478.3 4546.3 4682 4812.6 4902.1 4881.8 4939.2 5052.1 5227.4 5410.3 5443.9 5508.7 5642.3 5835.3 5915.5 5998.9 6078.2 6068.3 6115 6173.3 6197.3 6219.4 6108 6087 6103.6 6171.7 6322 6317.7 6069.6 5809.2 5619.9 5474.7 5270.1 5134.9 4833.7 4522.9 4427.9 4328.3 4032.5 3827.4 3846.3 3914.4 3832.6 3796.2 3805.1 3767.7 3819.9 3903.4 3926.6 3896.7 3893.8 3887.8 3911.1 3988.1 4084.6 4187.8 4221.8 4260.7 4352.7 4398.9 4407.1 4361 4311.1 4339.4 4445.7 4529.6 4358.3 4209.8 4200 4265.5 4427.6 4358.4 4230.6 4186.5 4171.8 4228.5 4275.4 4279.9 4332.3 4357.2 4369.9 4290.8 4291.8 4309 4292.7 4265 4293.5 4359.7 4460 4501.4 4389.3 4283.9 4285.2 4326 4402.9 4384.8 4302.3 4326.6 4350.4 4375.1 4347.6 4329.6 4314.3 4264.1 4269.9 4290.6 4321 4300.3 4276.9 4298.6 4300.6 4397.6 4468.7 4400.8 4399.4 4437.4 4458.5 4429.1 4393.5 4352.6 4283 4346.6 4413.2 4389.9 4311.6 4224.6 4376.5 4465.3 4487.4 4472.8 4408.2 4311.9 4329.9 4421.8 4489.3 4472.1 4402.9 4275.2 4271.2 4340.1 4394.4 4407.3 4292.8 4255.9 4296.4 4355.7 4403.4 4387.9 4359.8 4326.1 4408.9 4423.6 4360.1 4301.4 4258.2 4312.8 4357.1 4331.6 4325.1 4319.4 4415.7 4529.3 4498.3 4402.5 4363.1 4334.8 4324.3 4354.4 4425.9 4421.4 4400.4 4371.5 4373.5 4508.7 4533 4449.7 4353.1 4304.6 4338.9 4413.5 4450.4 4400.6 4328.2 4390.9 4447.8 4461.6 4418.3 4394.8 4409.2 4385.2 4359.7 4378 4465 4601.3 4491.2 4422.1 4397.3 4456.8 4502.7 4471 4458.2 4471.5 4516.2 4478 4458.5 4459.9 4418.6 4482.1 4632.7 4598.6 4473.7 4354.7 4332.7 4393.1 4503.5 4549.6 4486.1 4442.9 4460.1 4524.5 4573.2 4594.3 4512.9 4409.2 4461.1 4512.5 4509.8 4476 4442.4 4508.3 4564.3 4622.2 4706.5 4733.4 4794 4843.9 4667.1 4418.3 4411.7 4545.3 4550.5 4491.1 4469.2 4490.5 4515 4424.1 4422.5 4494.8 4539 4620.2 4559.3 4501.7 4509.4 4550 4565.1 4539 4542.5 4533.5 4562.7 4576.3 4584 4579.5 4529.2 4611.9 4683.4 4705.9 4737.6 4791.7 4803.1 4684.8 4544.7 4558 4600 4531.8 4370.2 4315.4 4392.2 4479.1 4462.9 4425.6 4506.7 4573.1 4603.5 4674.2 4696.9 4608.7 4636.3 4593.8 4566.6 4511.2 4562.7 4585.9 4501 4623.9 4690.1 4562 4461.4 4415.1 4514.3 4531.8 4479.5 4482.5 4501.1 4475.2 4459.5 4572.2 4611.5 4547.6 4416.8 4394.1 4441.5 4392.5 4308.8 4238.3 4323.9 4399.9 4430.8 4401.7 4413.4 4492.1 4547 4530.7 4520.5 4491.7 4413.4 4352.9 4262.1 4272.4 4343 4387 4335.9 4251.2 4260.2 4331.3 4397.4 4406.9 4393.8 4384.6 4381 4447.5 4506.6 4529.5 4507.9 4536.9 4557.1 4372.8 4181.4 4238 4290.5 4285.7 4203.9 4220.5 4343.1 4355.2 4344.9 4301.7 4343 4403.1 4423.8 4402.8 4329.6 4317.4 4316.7 4358.2 4425.7 4339.7 4263.4 4317.4 4403.8 4376.3 4390.1 4344.8 4301.7 4202.6 4244.6 4285 4349.1 4302.6 4256 4268.9 4222.1 4186 4172.4 4231.7 4293.6 4334 4411.7 4429.6 4297.5 4285.5 4415.8 4449.4 4350.4 4311.8 4305.6 4335 4391.6 4330.4 4358.5 4405.3 4461.2 4560.8 4544.3 4463.9 4328.1 4182.8 4198.9 4258.7 4300.7 4308.3 4287.3 4345.2 4369 4283.6 4266.8 4248.4 4257 4276.2 4289.3 4301.3 4363.5 4387 4368 4359.3 4406 4476 4487.5 4383.5 4246.5 4203.3 4322.2 4369.1 4311.3 4240.8 4250.5 4325.8 4395.1 4448.6 4424.2 4463.4 4567.6 4575.3 4580.1 4503.3 4339 4286.9 4233.1 4260.1 4306.3 4324 4377.7 4321.2 4339.7 4356.5 4344.1 4458.7 4487.1 4394.3 4351.2 4374.5 4406.6 4371.6 4260.7 4203.1 4246.9 4278.6 4313.1 4360.1 4380.2 4422.8 4310.2 4248.5 4285.4 4282 4282 4287 4343.3 4392.1 4389.4 4359.1 4290.2 4333 4343 4332 4335.9 4304.4 4367.7 4467.1 4520.3 4519.8 4429.8 4330.2 4321.6 4354.7 4373.7 4355 4335.6 4277.5 4260.8 4330.1 4396.8 4370.4 4244 4195.5 4259.6 4398.1 4456.2 4440.9 4424.3 4438.7 4464.6 4523.9 4476.3 4359.7 4348.5 4421.2 4443.9 4431.9 4444.5 4387.9 4271.6 4263.8 4368.1 4394.6 4286.8 4313.6 4466.4 4593 4566.7 4308.2 4279.5 4349.1 4266.6 4169.8 4195.5 4205.7 4158.8 4181.6 4200.4 4223.1 4271.6 4240.5 4218.3 4220.1 4240.7 4265.2 4276.6 4281.1 4247.4 4232.1 4268.7 4269.8 4252.4 4241.2 4258 4290.5 4242.6 4347.7 4395.3 4358.7 4355.2 4337 4362.3 4318.4 4280.2 4222.7 4202.5 4252.8 4271.4 4274.7 4255.2 4176.6 4215.5 4324.3 4479.2 4527.9 4418.7 4332 4386.7 4491.8 4540.3 4477.3 4418.3 4383 4464.2 4541.4 4576.5 4383.1 4152.2 4184.3 4307.2 4327.2 4403.5 4400.4 4366.4 4342.8 4292.3 4272.8 4299.8 4312.8 4283.4 4250.7 4253.6 4244.7 4240.6 4228.5 4266.3 4267.4 4283.2 4360.2 4317.4 4274.6 4267.9 4305 4352.5 4315.3 4288.9 4267.6 4265.9 4292.8 4337.3 4366.3 4353.5 4337.8 4350.9 4389.8 4487.2 4499.4 4422.4 4300.4 4261.7 4346.7 4401.8 4437.6 4336.5 4238.2 4265.4 4232.4 4147.4 4057.8 4042.9 4103 4149.3 4278.2 4300.3 4327 4357.2 4345.1 4349.3 4303.8 4307.8 4323.5 4315.2 4304.3 4318.1 4312.8 4287.4 4291.5 4328.2 4354.5 4391.5 4394.1 4345.3 4362.9 4455 4560.1 4531.4 4521.7 4517.5 4359.1 4331.6 4440.1 4581 4564.4 4325.3 4218.9 4257.2 4392 4453.6 4410.6 4435.4 4535.2 4478.4 4297 4219.2 4353.4 4378.7 4287.2 4252.1 4235.7 4286.2 4305.4 4302.7 4344 4425.1 4416.5 4315 4203.5 4188.7 4239.6 4279.4 4271.5 4256 4210.1 4191.4 4214.3 4237 4249.5 4231.7 4247.5 4282.6 4363.4 4425.8 4396.4 4368 4383.3 4405.2 4387.3 4372.8 4328.9 4245.8 4233.3 4301.8 4367.8 4403.7 4381.6 4326.3 4312.8 4350.1 4442 4484.6 4428.2 4437.8 4598.2 4727.8 4668.2 4529.9 4413.2 4390.3 4420.7 4316.2 4176.6 4121.7 4185.4 4291.8 4440.8 4502.4 4447.2 4388.2 4338.1 4321.4 4378.2 4440.6 4452.9 4392.5 4340.3 4318.2 4363.8 4432.7 4442 4457.5 4538.6 4463.2 4361 4310.8 4322.6 4351.1 4388.8 4424.1 4361.6 4354.1 4331.8 4289.3 4347.2 4393.6 4458.5 4415.3 4336.5 4411.4 4551.9 4544.2 4534.7 4562.9 4551.9 4451.7 4394.2 4347.5 4343.3 4399.6 4426.1 4387 4233.9 4245.3 4244.4 4195.5 4161.2 4163 4247.3 4327.8 4333.7 4315.1 4376.7 4463.3 4454 4418.3 4382 4283.2 4239.7 4254.6 4261.9 4293 4267.8 4296.4 4329.1 4373.5 4401.6 4397 4389 4387.2 4417.5 4416.4 4385.9 4354.5 4350.4 4426.4 4469.5 4385.8 4349.3 4278.3 4287.1 4325.1 4360.5 4343.4 4274 4245.9 4301.3 4353.3 4517.1 4580.2 4403.8 4162.4 4153.7 4270.1 4315.8 4334.6 4290.3 4236.7 4248.3 4382.6 4470.2 4420.9 4481.4 4594.2 4560.2 4509.3 4391 4487.8 4562.1 4380.7 4199.1 4127.3 4169.6 4173.3 4179.6 4233.2 4269.5 4277 4260.7 4268 4299.1 4397.1 4516.9 4487.7 4448.5 4433.9 4463.7 4532.1 4549.4 4531.7 4542.7 4556.7 4611.3 4684.1 4785.9 4913.9 4969.4 5014.5 5098.2 5202.9 5262.2 5243.5 5348.3 5480.6 5640.3 5807.8 5938.6 5994.3 5946.1 5952.6 5959.5 6015.1 6097.3 6074.8 5994.2 5995.2 6162.1 6245.3 6162.5 6046.3 5953.2 5840.1 5664.4 5429.6 5171.7 4955.7 4699 4419.7 4352.8 4405.5 4329.9 4151.7 4107.2 4118.7 4065.3 3997.7 3959 3840.6 3816.1 3844.4 3853.9 3900.8 3922.2 3933.2 3965.1 4021.1 4102.7 4138.9 4174.6 4222.2 4293 4339.4 4304 4267.8 4250.9 4266.9 4367.9 4464.9 4508.4 4457.5 4405.9 4389.2 4448.8 4536.8 4558.3 4516.9 4485.6 4429.1 4403.8 4352.2 4412.8 4491 4421.6 4356.4 4352.8 4397.2 4354.6 4392.6 4532.8 4602.2 4638.9 4683.6 4604.4 4512.5 4440.7 4360 4326 4320.8 4311.6 4304.9 4373.9 4396.9 4359.2 4328.2 4324.6 4356.7 4390.1 4436.9 4453.7 4437.2 4435.1 4452.8 4483.9 4462.5 4432.4 4355.7 4323.8 4347.7 4377.2 4406.4 4422.2 4406.7 4425.8 4453.3 4510.8 4543.1 4494.1 4446.7 4445.1 4462 4579 4814.1 4856.6 4694.8 4570.8 4453.9 4389.8 4543.1 4560.1 4601.1 4570.5 4551.3 4453.8 4363.3 4266.1 4308 4382.1 4482.1 4478.8 4377 4296.3 4304.5 4325.3 4346 4357.8 4345.3 4443.3 4456.2 4406.7 4419.3 4428 4432 4427.1 4433.5 4460.5 4483.4 4475.7 4399.7 4363 4449.6 4500.2 4490.1 4454.2 4467.7 4479.1 4504.8 4545.1 4541.7 4502 4512.3 4518.6 4535.4 4514.5 4510.3 4512 4486.1 4493 4509.8 4510.8 4512.5 4584.1 4555.9 4576.2 4569.3 4458.1 4473.3 4469.1 4524.4 4605 4548.1 4543.5 4634.3 4597 4548.1 4549.7 4489.8 4401.9 4418 4485.4 4549 4624.9 4677.8 4596.9 4557.7 4559.8 4625 4717.5 4686.5 4495.4 4461.3 4592.7 4692.7 4643.3 4512 4414 4489.5 4513 4543.9 4581.7 4586.2 4600.7 4649.4 4702.9 4677.2 4688.8 4679.1 4637 4660.9 4660.5 4582.3 4513.7 4479.3 4484.6 4527.7 4587 4637.7 4609.9 4611.8 4617.4 4661.9 4654.6 4642.3 4614.7 4603.4 4702.8 4660.4 4565 4562.3 4561.1 4556.5 4571.9 4654 4676.1 4642.1 4677.8 4689.8 4704.1 4668.7 4621.4 4582.4 4555 4573.6 4603.1 4629.7 4592.3 4561.8 4628 4664.6 4668.6 4733 4782.1 4839.9 4798.9 4771.2 4789.3 4726.5 4667.5 4723.2 4749.5 4686 4597.4 4602.4 4600 4609.8 4541.1 4553.2 4568.5 4586.3 4597.9 4600.6 4601.4 4546.5 4526.4 4531.3 4473 4454 4456.5 4474.9 4519.7 4489.5 4488.9 4510.4 4554 4591.4 4560.6 4516.2 4469.1 4498.3 4587.4 4538.9 4478.8 4440.3 4422.7 4577.7 4616.3 4625.7 4565.3 4534 4515 4448.8 4575.4 4685.2 4687.4 4547.2 4390.1 4312.3 4316.6 4383.3 4414.4 4410.3 4457.3 4402.6 4359.9 4325.8 4330.7 4375.3 4366.3 4395.7 4404.9 4389.3 4407.5 4414.8 4450.5 4462.3 4447.8 4419.4 4393.6 4403 4401.6 4387 4401.7 4399 4460.9 4514.8 4479.9 4402.6 4324.3 4323.5 4373.7 4417.3 4404.2 4405.8 4378.9 4356.8 4378.8 4387 4347.8 4335.8 4326.5 4395.4 4479 4526 4568.9 4499.1 4456.5 4411.9 4421.7 4493.5 4508.8 4460.5 4492 4540.9 4441.2 4389.8 4412.3 4399.8 4415.4 4463.6 4540 4517.5 4453.1 4435.3 4445.8 4487.3 4535 4541.6 4563.4 4551.7 4393.5 4283 4318.7 4280.8 4243.5 4320.8 4389.4 4410.5 4421 4439.5 4487 4534.5 4522.6 4501.7 4482 4478 4486.4 4394.6 4350.8 4321 4411 4451.9 4351.2 4326.7 4363.5 4430.9 4471.5 4445.1 4446.5 4467.6 4458.3 4411.7 4460 4484.4 4444 4488.5 4536.1 4549.2 4538.6 4470.1 4417.5 4410.2 4447.1 4443.8 4427.4 4448.7 4463.6 4471.4 4470.5 4469.7 4415.6 4425.1 4511.4 4503.4 4406.6 4301.6 4344.5 4567.5 4753.5 4770.7 4614.3 4480.7 4468.6 4450 4441.9 4430.2 4477.7 4468.1 4408.1 4415.4 4405.8 4418.9 4469.7 4410.2 4349.3 4414.9 4446.1 4396.6 4416.5 4457.3 4481 4489.9 4489.4 4475.3 4442.9 4414.3 4443.8 4560.7 4537.6 4428.5 4336.4 4294.9 4389.4 4530.7 4508.8 4403.6 4351.1 4319.6 4394.1 4439.2 4445.3 4463.8 4452 4450.3 4369.7 4310 4301.5 4280.7 4350 4453.9 4550.7 4578.4 4495.6 4461.7 4451.2 4429.9 4430 4411.5 4412.9 4414.8 4446.1 4366.2 4274.4 4293.1 4316 4323.7 4362.9 4426.9 4499.6 4479.9 4414.5 4377.9 4458.8 4541.4 4476.5 4403.5 4325.8 4357.8 4401.2 4407.2 4380.5 4307.5 4330.6 4407.4 4531.2 4616.1 4485.8 4372.1 4353.9 4391 4499.4 4480.4 4375.4 4309.7 4227.8 4307.7 4348.9 4374.4 4352.3 4325.6 4331.5 4354.5 4418.6 4403.8 4398.6 4414.8 4540.2 4699.2 4591.4 4598.4 4501.4 4363.5 4416.1 4440.8 4376 4313 4342.5 4375.4 4324 4266.6 4310.3 4446.9 4502.1 4485.7 4476.9 4433.1 4446.5 4396.8 4289.6 4266.9 4315.6 4339.4 4378.3 4348.7 4308.8 4300.5 4313.9 4392.7 4504.2 4503.6 4429 4414.3 4425.3 4390.8 4395.6 4342.7 4330.4 4399.5 4482.9 4556.6 4433.5 4352.4 4331.3 4374.3 4385.1 4361.5 4347.6 4337.5 4357.9 4392.9 4399 4392.7 4361.9 4331.6 4320.5 4315.7 4360.3 4467 4532.4 4445.3 4476.2 4557.7 4431.1 4293.5 4313.1 4575.2 4666.9 4479 4300.8 4293.5 4339.8 4390.4 4411.5 4569.4 4697.2 4663.9 4546.2 4483.9 4508.7 4496.3 4410.7 4390.8 4460.2 4517.7 4555.7 4552 4449.9 4360.5 4379.9 4348.1 4375.6 4371.7 4373.3 4463.2 4522.9 4507.8 4511.7 4587.9 4694.3 4602 4505.3 4445.8 4445 4426.4 4381.5 4431.7 4519.6 4498.4 4413.6 4350.2 4381.9 4483.1 4551.8 4491.6 4454.9 4429 4387.8 4391.5 4375.6 4359.7 4317.3 4291.9 4299.7 4302 4275.3 4327.4 4362.3 4426.9 4434.5 4413 4402.7 4374.2 4363.1 4447.5 4515.4 4462.5 4446.8 4400.3 4357.5 4367.6 4329.6 4328.4 4426.3 4457.7 4428.5 4422.1 4501.7 4491.6 4394 4419.4 4524.4 4535.4 4495.9 4431.8 4334.2 4231.9 4228.6 4277.2 4307 4299.4 4243.7 4234.4 4328.4 4416.4 4426.8 4358.3 4396.8 4468.6 4528.6 4614.4 4520.1 4409.1 4383.6 4461.7 4418.6 4268.3 4164.1 4174.9 4256 4313.3 4328.5 4318.5 4300.6 4273.1 4279.8 4341.5 4400.4 4350.7 4301.6 4246.2 4248.1 4303.1 4324.5 4323.9 4327.1 4357.3 4373.4 4401.3 4450 4474.9 4442.2 4350.2 4345.9 4435.5 4435.5 4480 4396.5 4219.6 4187.3 4266.9 4286.5 4263 4269.2 4322.9 4328.8 4306.2 4273.9 4317.4 4354.8 4345.9 4398.9 4389.6 4383.5 4366.9 4389.9 4466.6 4640.5 4876 4855.5 4654 4581.1 4649 4757.4 4841.5 4901.4 4994.3 5070.9 5156.4 5283.9 5474.5 5544 5575.8 5688 5721.1 5898.3 6044.1 6138.1 6202.4 6246.2 6289.5 6250.9 6149.2 6204.3 6241.1 6247.3 6252.6 6342 6283.3 6124.5 6023.8 5781.4 5381.2 5028.7 4881.2 4740 4455.5 4336 4296.7 4213.8 4184.2 4148 4070.7 3996.3 3873 3843.3 3923.9 4039.2 4020.9 3955.5 3900.3 3909.8 4031.7 4132.2 4242.2 4387.4 4413.1 4443.9 4488.6 4437.1 4410.9 4392 4368.5 4305.3 4292.2 4309.8 4326.9 4275.7 4266.1 4418.2 4499.1 4597.2 4624.3 4541.2 4469.3 4440.8 4443 4433 4390.2 4483.4 4389.4 4296.9 4296.3 4354.7 4402.4 4445.7 4503.4 4465.8 4397.2 4444.3 4425.7 4360.5 4440.2 4499.3 4550.9 4441.6 4334 4278.1 4294.5 4339.7 4391.9 4422.5 4403.2 4448.2 4422.6 4374 4472.2 4473.4 4370.8 4348.5 4410 4492.2 4423.9 4413.1 4424.9 4456.4 4421 4418.5 4448 4444.4 4489.1 4472.8 4460.3 4455.1 4437.8 4412.4 4395 4395.7 4464.8 4469.7 4448.9 4409.9 4398.3 4384.5 4371.1 4341.4 4281.8 4240.8 4336.3 4428.6 4501.8 4523.1 4449.7 4492 4548.8 4566.1 4597.7 4552 4597.4 4448.6 4314.5 4318.8 4396.2 4377.9 4299.2 4355.1 4387.9 4386.7 4400.9 4401.2 4400.9 4451.4 4483.8 4522.1 4531.3 4468.1 4359.8 4381.4 4432.5 4422.2 4414.8 4325.3 4376.8 4470 4485.8 4556.8 4609.5 4677.1 4636.2 4534.9 4494 4449.3 4418.5 4393.2 4524.7 4640.9 4602.1 4485.2 4389 4438.6 4530.9 4474.8 4433.3 4482.2 4533.1 4529.5 4508.5 4474.8 4442.3 4448 4450.2 4403.4 4434.8 4447.3 4423.6 4399 4469.1 4497.2 4535.1 4637.1 4691.6 4636.5 4613.7 4566.5 4531.6 4474.4 4487 4457.6 4477.1 4566.6 4638.5 4611 4582.3 4619.9 4601.9 4594.7 4712.6 4763.9 4603.5 4574.9 4558.1 4607.9 4620.9 4698.9 4738.9 4681.8 4649.3 4673.7 4603.9 4569 4492.7 4459.6 4580 4693.1 4664.3 4571.2 4554.2 4554.1 4607.4 4715.2 4819.3 4806.5 4669.7 4686.1 4718.8 4618.1 4507.9 4388.5 4402.9 4494.4 4595.5 4659.9 4737.4 4779.7 4731.6 4717.9 4639.4 4537.8 4517.7 4494.9 4558.8 4566.8 4515.2 4444.8 4445.1 4520.7 4589.7 4680.9 4730.1 4661.8 4653.1 4685.8 4677.6 4675.4 4719.9 4731.6 4675 4642.9 4666.2 4641.4 4638.9 4568.9 4530.1 4584.7 4692.1 4687.5 4614.8 4596.1 4581 4577.4 4572.2 4526.6 4527.9 4543.6 4535.8 4539.5 4540.5 4540 4458.6 4371.2 4354 4385 4476.1 4485.3 4493.2 4600.6 4693.9 4592.2 4385.4 4348.2 4364.5 4352.1 4381.2 4400.2 4389.2 4363.8 4452 4484.4 4474.9 4491.2 4511.1 4457.7 4351.3 4336.3 4452.9 4575.1 4481.4 4355.7 4279.3 4314.8 4266.6 4238.1 4251.8 4229.7 4256 4303.8 4288.1 4262.7 4319.8 4410.4 4400.9 4384.6 4351.4 4373.3 4317 4289.5 4359.6 4325.9 4377.8 4441.3 4473.5 4468.8 4419.1 4425.2 4400.5 4364.5 4337.9 4304.1 4309.9 4267.3 4386.8 4439 4305.4 4303.8 4313.4 4248.3 4203 4274.6 4338.2 4298.9 4309.5 4342.6 4355.9 4371.6 4341.5 4387.3 4430 4442.2 4387.6 4362.2 4383.3 4409.2 4436.1 4409.7 4350.5 4287 4277.7 4304.8 4370.1 4437.5 4474.4 4536.3 4521.2 4402.5 4286.2 4324.1 4262.4 4211.6 4277 4349.3 4346.8 4285.5 4264 4316.4 4390.3 4444.2 4425.7 4389 4402.6 4398.7 4374 4384.5 4390.2 4369.1 4507.2 4550.6 4420.3 4333.8 4289.7 4314.3 4423.2 4552.6 4569.9 4448 4307.8 4288.6 4406.3 4458.5 4378.4 4377.3 4366.3 4310.2 4324.5 4325.1 4356.5 4332.2 4244.3 4230 4317.3 4493.8 4591.9 4547.2 4463.8 4390.4 4451.6 4442.6 4387.5 4325.3 4362.7 4319.9 4204.9 4215.7 4246.2 4278.6 4306.7 4331.3 4353.1 4350.9 4347.4 4361.9 4380.7 4395.8 4377.9 4367.3 4328.6 4308.4 4345.8 4383.5 4399.1 4370.9 4336.6 4370.1 4373.5 4376 4378.8 4382 4338.9 4412.2 4495.8 4499.6 4470 4343.2 4244.6 4288.7 4363.2 4370.3 4302.7 4273.7 4404.7 4473.7 4578 4607.9 4524.7 4421.5 4264.3 4227.5 4258.1 4284 4316.3 4284.6 4293 4332.5 4319.9 4277.5 4195.2 4215.6 4250.6 4307.3 4356.1 4328 4365.2 4413.4 4369.5 4409.9 4420.5 4406.4 4296.6 4215.9 4327.8 4422.6 4448.9 4375.7 4355.4 4308.6 4315.8 4428.8 4371 4333.4 4349.1 4362.6 4387.3 4289.1 4267.6 4278 4307 4373.7 4374.2 4390.8 4338 4278.1 4284.2 4310.6 4346.8 4338.8 4379.2 4437.5 4427.3 4434.4 4396.3 4325.2 4279.9 4217.4 4220.8 4241.1 4276 4216.2 4220.1 4260.7 4313.2 4291 4280 4334.8 4406.6 4375.3 4340.2 4293.1 4323.6 4330.2 4276.6 4232.7 4280.7 4273.6 4280.6 4326 4465.6 4496.9 4388.8 4329.6 4395.3 4437 4322.9 4311.2 4325 4300.2 4283.6 4290.1 4252.8 4210.6 4210.1 4187.6 4122.2 4173.2 4302 4347.4 4340.8 4320 4325 4316.3 4336.7 4375 4373.8 4328.2 4323.2 4365.2 4413.2 4480.1 4495.5 4391.7 4346 4263.6 4255.3 4287 4215.3 4208 4239.7 4280.8 4366 4344.8 4310 4242 4219.9 4312.5 4348.7 4207.9 4178.8 4366.5 4524.9 4492.9 4401.4 4326.5 4369.6 4479.9 4464.7 4368.3 4287.2 4255.6 4218.5 4226.3 4285.4 4323.5 4376.7 4457.6 4397.7 4305.2 4255.7 4279.4 4294.5 4355.6 4424.5 4385.6 4372.5 4331.5 4256.4 4168.9 4172.7 4283.6 4363.7 4412.6 4358.5 4398.6 4429 4340.4 4319.2 4346.1 4348.6 4353.8 4406.5 4500 4529 4520.9 4451.6 4370.7 4399.6 4455.9 4519 4458.1 4445.6 4459.9 4375.9 4293.5 4212.8 4217.3 4304.6 4369 4379.7 4347.2 4317.8 4287 4316.1 4417.8 4460.8 4343.8 4312.3 4340.4 4360.9 4352.9 4373.3 4485.5 4473.4 4438.3 4355.3 4350.1 4328.1 4324.6 4359.6 4337.2 4339.5 4369.3 4333.6 4286.2 4272.7 4318.1 4352.7 4371.7 4364.5 4323.1 4381.4 4398 4397.9 4348.5 4316.4 4275.6 4238.2 4255.7 4275.3 4274 4315 4309.9 4272.3 4294 4372.5 4470.7 4551.5 4554 4511.8 4400.3 4345.2 4375.7 4351.3 4233.6 4235.3 4314.1 4348.6 4306.7 4244.3 4319.2 4312.9 4279.9 4262.6 4283.1 4319 4260.2 4260.3 4353.4 4338.2 4282.3 4198.1 4127.4 4164.9 4242.6 4208.5 4131.6 4138.7 4130.7 4161.2 4249.4 4266.8 4346.6 4438.7 4392.6 4383.9 4370.1 4395.2 4223.8 4166.1 4222.1 4240.5 4210.4 4209.2 4239.6 4288.4 4379.7 4444.6 4396.1 4321.9 4222.3 4214.3 4274.3 4264.5 4240.8 4227.3 4245.9 4291 4306.5 4261.4 4187.6 4185.3 4270.9 4339.6 4418.4 4489.9 4445.1 4340.3 4352.2 4373.3 4262.9 4151.5 4147.8 4198.6 4308.3 4362.3 4338.2 4321.1 4294.6 4351.7 4492.7 4631.3 4684.7 4659.2 4610.8 4676.3 4840.6 4888.1 4915.1 4994 5067.2 5190.8 5294.1 5377 5487.4 5568.3 5707.4 5783.7 5905.2 6072.2 6140.6 6127 6083.5 6097.9 6077.5 6060.4 6041.1 6048.3 6100.3 6081.7 6063.8 5971.9 5845.8 5728.9 5452.2 5115 4768.5 4531.1 4352.5 4366.5 4460.3 4379.7 4234 4073.8 3897.9 3831.6 3837.5 3952 4005.4 3973.6 3865 3809.1 3940 4019.2 3946.3 3873.1 3879.9 4004.8 4150.8 4194.7 4228.7 4263.8 4255.5 4230 4234.6 4233.5 4197.9 4291.4 4373.2 4358.5 4388.4 4412.2 4397 4365.1 4389.2 4417 4418.8 4432.8 4323.2 4224.8 4244.3 4281.4 4265.2 4242.7 4284.3 4320.3 4319.7 4345.6 4375.2 4361.7 4343.9 4349.9 4367.9 4356.5 4419.5 4382.9 4388.4 4476.1 4410.6 4288.3 4227.4 4313.4 4439 4463.6 4423.3 4396.4 4316.3 4306.4 4313.7 4379 4333.2 4293.1 4285.1 4255.1 4244.4 4237.5 4251.2 4306.4 4320.4 4366.7 4346.6 4402.8 4431.7 4400.2 4433.4 4476.9 4505.5 4448.8 4357.2 4317.4 4340.2 4346.2 4336.8 4288 4273.2 4235.7 4257.8 4325.2 4419.7 4462.4 4449.7 4391.9 4346.5 4354.3 4347 4369.2 4415.8 4366.2 4331 4331.5 4346.8 4389.8 4351.8 4378.6 4453 4439.5 4458.2 4452.4 4465.3 4466 4474.7 4511.6 4451.4 4410.8 4432.2 4478.3 4491.2 4379.2 4307.9 4296.4 4369.4 4442.7 4479.4 4431.9 4374 4372.7 4374.3 4417.7 4406 4363.1 4341.1 4282.6 4265 4315.9 4389.3 4446.3 4404.7 4405.4 4400.9 4364.9 4373.5 4422.9 4512 4522 4492.8 4492.2 4527.8 4527.4 4398.3 4308.3 4388.7 4432 4407.1 4367.3 4388.4 4450 4472.2 4491.1 4470.3 4446.5 4452.7 4438.6 4464.6 4422.7 4487.4 4522.4 4479.9 4456.1 4461.8 4461.4 4468 4520.3 4565.7 4509.5 4541.8 4579.2 4555.9 4576.6 4579.1 4616.6 4623.2 4532.9 4419.6 4380.6 4477 4572.6 4678 4660.2 4679.5 4683 4678.6 4678.1 4573 4556 4553.2 4547.9 4473.1 4420.2 4408.5 4367.3 4372.4 4423.4 4485.5 4456.7 4397.8 4374.7 4456.1 4526.8 4576.6 4603.5 4591 4538.3 4609.9 4703.2 4688.8 4596.2 4530.5 4487 4461 4536.5 4558.8 4570 4537.4 4508.3 4473.1 4498.9 4544 4497.9 4503.8 4588 4637.6 4653.8 4611.1 4528.7 4508.5 4598.4 4618.1 4565.6 4541.2 4527.6 4565 4605.4 4657.7 4706.3 4657.7 4583 4593.3 4612.4 4641.8 4598.2 4507.6 4403.6 4338.8 4316.5 4330 4366.9 4358 4404.8 4443.4 4463 4580.7 4755.8 4755.9 4797.6 4679.3 4582.9 4558.9 4484.8 4335.7 4173.5 4117 4133.8 4228 4303.5 4301.2 4316.6 4352.3 4459.5 4434.1 4349.3 4326.6 4374.1 4411.1 4309.9 4276.4 4263.5 4257.3 4268.5 4189.3 4164.6 4135.7 4166.7 4267.6 4343.2 4400.9 4385.5 4359.1 4333.8 4287.6 4318.6 4328.5 4293.8 4357.6 4421.6 4369.5 4329.1 4282.9 4300.3 4294.7 4305.5 4345.8 4378.8 4408.9 4340.2 4347.1 4415.1 4415 4378.3 4388.2 4383.9 4338 4296.8 4307.5 4278.2 4360.9 4307.5 4205.1 4134.5 4156.2 4192.8 4220.3 4286 4324.6 4349.5 4411.1 4457.5 4397.8 4256.4 4325.1 4426.9 4330 4253.2 4240.9 4168.7 4145.8 4320.1 4434.3 4358.8 4248.9 4225 4261.9 4274.8 4298.8 4328.5 4275.3 4250.1 4251.9 4221.2 4176.7 4154.3 4239.2 4311.7 4353.8 4381.1 4316.6 4263.1 4291.5 4269.5 4384.2 4411.1 4294.8 4202 4251.4 4389 4435 4464.1 4455.9 4398.4 4389.8 4376.8 4347.3 4322.2 4327.8 4332.9 4362 4406.9 4400.3 4356.9 4346.5 4381.5 4455.5 4390 4312.8 4277.3 4240.2 4310.8 4354.1 4412.4 4400.1 4455.1 4405.6 4383.4 4411 4350.4 4295.2 4269.4 4318.9 4432.8 4466.2 4488.1 4413.8 4224 4136.7 4171.9 4287.1 4378.6 4437.7 4430.7 4391.7 4448.4 4392.3 4256.6 4191.5 4190.9 4227.3 4295.9 4312.5 4264 4217.9 4199.4 4176.7 4225.5 4292.4 4279 4302 4351.1 4385.2 4353.3 4292.9 4274.6 4250.2 4278.9 4357.7 4392.8 4315.7 4207 4221.4 4258.6 4330.2 4346.4 4300.4 4243.7 4303.4 4405 4374.6 4333.2 4366.8 4386.6 4376.1 4274.8 4251 4255.3 4327.8 4397.4 4327.2 4372.6 4407.6 4427.6 4433 4401.7 4414.9 4372.9 4343.4 4306.6 4229.3 4165 4167 4170.3 4224.1 4229.5 4224.7 4237.2 4281.7 4361.3 4402.7 4429.1 4466.3 4428.9 4358.7 4328.6 4354.6 4361.5 4261.4 4176.3 4124.1 4145 4173.1 4222.5 4308.2 4341.9 4303.8 4268.8 4218 4255 4278.9 4320.9 4291.4 4287.7 4295.6 4335.9 4310.1 4305.7 4305.6 4297.6 4282.2 4239 4145.7 4146.5 4178.1 4219.4 4321.6 4343.9 4326.8 4219 4189.7 4194.6 4185.6 4223.3 4261.3 4215.7 4238.3 4286 4319.9 4331.8 4347.5 4335.1 4297.1 4273.8 4282.4 4412.9 4396.7 4377.5 4373.7 4361.3 4458.6 4434.3 4202.1 4166 4234.4 4333.5 4238 4205.1 4212.5 4194.5 4187.3 4236.4 4297.7 4366.3 4408.4 4367.7 4248.3 4166.9 4238.8 4263.1 4277 4249.8 4208.9 4256.8 4379.8 4427.1 4318.7 4259.5 4292.2 4286.3 4245.6 4240.5 4232.5 4186.5 4160 4181.3 4204.9 4199.6 4176.7 4198.4 4292.4 4284.4 4280.5 4301.3 4373.9 4391 4410 4429 4387.5 4363.8 4300.6 4214.1 4143 4127.5 4167.5 4209.4 4320.8 4328.8 4287.3 4313.9 4359.5 4359.2 4452.6 4421.7 4429.6 4344.6 4281.2 4227.2 4248.9 4316.5 4255.2 4203 4217.6 4260.9 4333.1 4334.7 4360.5 4423.4 4439.2 4421.9 4504.3 4545.3 4438.8 4380.1 4325 4302.5 4258.8 4187.1 4214.9 4279.8 4360.3 4359.4 4345.8 4377.5 4407.9 4383.3 4345.3 4372.5 4455.1 4475.1 4404 4354.4 4359.9 4371.1 4328.9 4330 4340.6 4251.3 4241.8 4253.1 4288.5 4293.5 4314.4 4341.6 4354.4 4418.6 4449 4305.1 4206.9 4167.4 4204.7 4233.2 4252.1 4277.6 4272.7 4267 4304.1 4443.3 4502.9 4475.7 4420.8 4356.7 4329.5 4300.3 4301.4 4324.2 4254.7 4259.1 4254.9 4209.2 4186.4 4231.5 4293.5 4320.8 4345.6 4322.9 4305.1 4318 4367.9 4414.8 4388.5 4355.4 4439.3 4311.7 4270.4 4241.8 4157.2 4199.7 4205.7 4291.5 4370.1 4341.1 4326.3 4289.8 4227.3 4251.9 4374.3 4347.9 4179.4 4117.2 4097.4 4167.7 4205.1 4194.3 4225.2 4222.1 4230.4 4217.4 4213.6 4296.5 4319.4 4271.2 4241.6 4261.8 4327.5 4364 4358.8 4289.5 4235.7 4248.4 4276.9 4209.5 4198.6 4266.1 4248.2 4242.2 4309.6 4421.2 4393.7 4388.1 4346.2 4349.9 4348.8 4264.6 4165.3 4152.4 4214.7 4181.3 4150.1 4128.1 4146.1 4206.5 4200.3 4198.8 4209.5 4237.2 4273.3 4297.6 4322.3 4352.2 4399.7 4370.9 4333.5 4430.2 4432.4 4417.4 4459.1 4492.7 4597.2 4762.2 4883.8 4897 4862 5010.6 5166.2 5313.5 5405 5463.1 5514.1 5550.9 5667.2 5779.9 5933.5 6018.5 6010.4 5969.8 5970.2 6107.9 6112.8 6035 6024.3 6063 6210.7 6199.3 6066.9 6062.3 5979.4 5619.4 5314.7 5100.7 4873.3 4648.6 4430.3 4344.4 4344.2 4376 4236.7 4092.8 4043.4 3965.1 3855.5 3796 3815.9 3815.3 3822.6 3942 4027.7 4052.1 4020.4 4050.3 4100.9 4134.4 4164.9 4086.9 4080.6 4140.8 4219.7 4305.1 4266.1 4238.3 4176.2 4142.4 4241 4275.6 4288 4313.6 4351.3 4345.5 4332.4 4277.8 4321.6 4322.8 4379.3 4446.4 4435 4338.1 4308.4 4298 4284 4289.6 4349.4 4345.9 4270 4259.8 4321 4336.8 4355.2 4355.7 4340.8 4339.6 4339.1 4393.2 4390 4399.3 4363.5 4337.7 4366.7 4433 4497 4428.6 4290.8 4249.2 4222.6 4253 4306.3 4367.4 4423.3 4457.1 4501.9 4462.6 4420.2 4357.7 4329.4 4374.6 4405.2 4345 4279.8 4193.1 4195.1 4225.3 4296.5 4407.2 4449.5 4497.4 4482.8 4476.9 4517.3 4515.9 4472.4 4445.5 4393.4 4369.9 4376.2 4413.4 4314.2 4279.2 4300.9 4332.8 4396.4 4402.2 4463.7 4514.5 4491.5 4484 4422.9 4417.8 4361.3 4335.1 4332.6 4362.4 4427 4434.7 4398.1 4308.6 4266.5 4381 4438.9 4479.7 4471.2 4391.9 4404.3 4447.1 4415.7 4277 4270.7 4320.9 4339.8 4383.1 4435.3 4438.8 4422.4 4486 4550.3 4591.4 4492.5 4331.9 4302.6 4412.5 4418.5 4402.2 4383 4346.5 4340.8 4364 4398.6 4401.4 4398.2 4451.7 4541 4553.7 4479.7 4431.4 4424.2 4450.5 4549.9 4631.3 4621.1 4490.1 4386.8 4369.7 4368.1 4399 4431.9 4444.9 4464.4 4530 4577.2 4534.8 4473.1 4458.6 4496.5 4524.5 4498.3 4501.5 4501.5 4539.1 4525.9 4502.8 4532.1 4544.8 4502.1 4505 4548.2 4572.4 4562.2 4541.2 4546.6 4512.6 4551.8 4572.3 4564.2 4536.3 4524.9 4527.7 4512.8 4593 4674.3 4790.2 4887.1 4750.4 4553.7 4412.6 4335.3 4366.9 4441.2 4494.1 4512.9 4533.7 4519 4481.5 4486.8 4464.9 4442.2 4459.5 4443.9 4471.9 4519.5 4620.2 4674 4613.5 4578.5 4564.6 4653.2 4663.2 4623.4 4564.2 4512.1 4508.1 4508.2 4463.8 4445.9 4413.4 4465.6 4528.8 4589.2 4671.7 4631.1 4628.3 4688.6 4752.8 4737 4607 4486.6 4403.1 4432.9 4502.9 4519.6 4616.2 4539.4 4507 4519 4552.2 4555.1 4651.5 4629.7 4416.2 4373.7 4391.3 4464.2 4522.7 4475.1 4434.1 4478.6 4518.1 4450.5 4331.6 4268.4 4313.6 4370.3 4416.1 4417.9 4439.6 4486.9 4498.5 4537.6 4535.6 4541.4 4438.3 4369.8 4541.4 4637.1 4564.9 4374 4272.6 4291.6 4311 4387.7 4409.9 4387.6 4465.7 4473 4431.6 4373.5 4335.7 4262.9 4169.6 4184.9 4256.5 4289.1 4348.1 4400.8 4368 4328.7 4302.8 4305.7 4309.7 4391.4 4399.4 4414.8 4388.5 4347.8 4314.3 4273.6 4331.2 4438.8 4445.5 4375.9 4304.3 4287.9 4278.2 4235.6 4267.9 4330.1 4385.7 4402 4374.8 4354.3 4284.5 4256 4223.8 4229.5 4287.7 4315.5 4327.9 4362.2 4413.9 4338.9 4331.9 4359.7 4352.7 4416.5 4441 4453.1 4423.7 4357.8 4387.1 4382.2 4329.9 4304.2 4252.4 4275.6 4354 4369.8 4380.8 4395.1 4411.3 4390 4384.5 4338.7 4346.2 4382.6 4323.9 4333.7 4360.5 4378.4 4396.4 4361.3 4322.6 4278.2 4281.5 4329.1 4428 4431.4 4407.4 4423.1 4394.3 4424.4 4411.6 4379.2 4436.5 4417.3 4424.2 4417.4 4361.2 4279.6 4230.1 4277.7 4284.2 4351.7 4388.9 4332.8 4301.4 4365.3 4442.3 4453.9 4414.7 4380.5 4331.5 4287.4 4351.7 4414.5 4425.7 4412.5 4362.7 4361.4 4372.6 4449.4 4511.6 4548.3 4465.7 4313.3 4295.4 4272 4307.9 4325.7 4390.3 4523.3 4489.3 4345.2 4296.7 4329.7 4419.4 4484.6 4444.7 4409.1 4347.6 4334 4338.6 4374.7 4399.8 4321.5 4285.6 4334.7 4378.6 4412.7 4381.1 4296.7 4252.6 4233.5 4309.9 4379.2 4434.9 4408.7 4341.5 4306.6 4305.2 4331.3 4348.3 4342.7 4277.6 4294.9 4337.7 4354 4343.2 4341.6 4370.8 4440 4503.2 4499.5 4397.2 4332.9 4365.4 4390.5 4420.7 4367.1 4338.5 4314.4 4262.6 4284 4372.8 4368.3 4258.6 4286.5 4337.8 4407.7 4458.3 4403 4434.1 4508.6 4512.1 4495.2 4439.3 4350.9 4293.6 4304 4394.4 4350.6 4212 4185.8 4205.6 4256.2 4264.7 4306.5 4296.1 4318.6 4300.3 4295.7 4341.5 4318.2 4318 4356.1 4338.5 4357.6 4400.3 4374.1 4285.8 4232.4 4269.2 4389.1 4378.7 4263.4 4169.1 4237.8 4366.5 4444.2 4487.3 4449.4 4282.5 4232.3 4278.6 4275.5 4261.3 4270.3 4305.1 4407 4385.8 4360.1 4383 4372.3 4414.7 4479.1 4501.9 4470.9 4398.3 4289.4 4229.9 4298 4317.3 4298.6 4268.3 4181.4 4171.5 4226.9 4327.7 4440.9 4494.7 4392.4 4295.1 4326.5 4364.8 4391.9 4378.3 4280.3 4238.3 4285.1 4306.2 4306.1 4288 4263.2 4234.5 4300.3 4376.5 4381.8 4318.4 4281.2 4307.4 4336.3 4314.5 4336.5 4350.6 4366.4 4368.2 4355.1 4269.9 4196.7 4263.1 4358.9 4408.9 4396.9 4431.4 4483 4531.7 4562.9 4470.8 4370.2 4384.5 4265.1 4201 4236.2 4219.2 4219.5 4232.2 4247 4294.3 4314.4 4361.5 4337.3 4327.5 4357 4382.6 4453.7 4448.1 4484.8 4434.5 4305 4312.2 4284.1 4180.8 4187.8 4238 4260.3 4271.6 4321.6 4313.9 4302.5 4287.3 4254.2 4250.4 4254.2 4280.7 4261.6 4283 4295.1 4272.8 4268.5 4295 4362.7 4388.1 4367.2 4477.4 4514.5 4543.3 4690.4 4695.6 4502.9 4309.8 4159.8 4113.7 4117.3 4174.8 4250.9 4412.6 4523.1 4410.2 4245.6 4227 4328.9 4337 4308.4 4260 4244.9 4327.8 4408 4417 4337.2 4226.1 4190.8 4230.2 4285 4344.1 4351.6 4267.1 4204.9 4253.7 4319.7 4398.4 4415.2 4381.6 4432.4 4414.2 4352.2 4297.6 4249.7 4303.6 4311.9 4295.8 4248.9 4192.6 4248.1 4304.4 4344.3 4317.7 4280.4 4323.7 4355.5 4391.2 4370.1 4323.9 4320.5 4252.7 4297.5 4312.5 4265.2 4268.5 4275.8 4330.1 4358.6 4392 4402.1 4390.6 4386 4463 4523 4423 4361.3 4386.1 4327.2 4262.2 4309.3 4290.1 4288.6 4314.1 4304.8 4240.1 4207.9 4323.5 4385.6 4312.4 4300.3 4386.9 4530.8 4424.2 4322.1 4271.2 4256.8 4312.4 4307.7 4294.7 4284.5 4314.1 4350 4433 4575.3 4479.3 4409.6 4347 4325.7 4390.6 4405.8 4413 4412.7 4318.2 4347.3 4384.3 4280.3 4261.6 4297.4 4295.6 4328 4426.5 4523.4 4492.4 4439.5 4385.9 4398.5 4396.8 4362.5 4352.6 4397.5 4409.2 4364.3 4361.3 4301.9 4239.1 4269.7 4316.5 4349.5 4396.1 4386.7 4420 4469.7 4531.1 4477.9 4407.4 4352.9 4274.3 4308.4 4339 4272.9 4208.5 4204.2 4218.8 4224.8 4308.1 4412.2 4519.3 4540.5 4494.6 4412.1 4369.9 4325.3 4332.6 4385.6 4467.8 4460.2 4344.6 4249.7 4191 4294.4 4432.2 4466.6 4419.9 4301.3 4325.6 4349.5 4372.5 4379.1 4299.3 4285.5 4250.1 4255.9 4336.6 4309.9 4266.6 4194 4123 4168.1 4299.5 4365.3 4359.7 4393.5 4391.9 4363 4362.3 4315.6 4372.6 4352.4 4327.3 4348.5 4305.7 4281.5 4237 4211.3 4186.8 4219.4 4282.1 4306.9 4312.4 4331.9 4403.7 4441.6 4403 4381.8 4370.7 4325.6 4285.9 4282.1 4298.3 4249.3 4260.7 4478.6 4523 4491.2 4435.2 4422.5 4435.5 4393.6 4358.7 4243.6 4212 4180.7 4159.9 4194.3 4243.8 4279.4 4261.2 4265.9 4292.5 4323.4 4359.2 4335.4 4241.9 4240 4297.2 4318.5 4311.6 4318.4 4264.2 4243.4 4340.2 4429.9 4410.2 4397.5 4472.2 4640.1 4728.4 4741.3 4712.8 4696.3 4754.6 4886.2 5054.9 5148.4 5145.9 5161.5 5233.2 5365.3 5432.6 5502.7 5606.4 5721.6 5885 6030.8 6199.7 6274.8 6223.6 6176 6233.9 6219 6208.4 6189.9 6136.1 6143.1 6168.5 6153.9 6053.9 5824.4 5668.1 5506 5209.1 4905.3 4651.9 4414.3 4333.4 4295.8 4219.5 4117.7 4036.6 3965.2 3895.7 3848 3827.9 3812.4 3840.8 3871 3968 4006.3 4061.1 4096 4146.9 4207.2 4237.4 4287.1 4293.3 4291.1 4349.9 4330.4 4274.7 4323.3 4278 4281.9 4346.2 4411 4376.2 4310.1 4364.4 4349 4361.4 4446.1 4484.3 4450 4404.3 4431.2 4397.9 4301.1 4342.9 4402.4 4422.4 4402.1 4329 4345.3 4427.9 4517.5 4550.6 4556.2 4596.2 4596.9 4486.4 4423.1 4358.8 4239.7 4203.9 4207.3 4222.3 4207.2 4212.8 4219.6 4278.6 4329.5 4396.4 4435.6 4421.1 4414.8 4434.1 4426.9 4403.5 4391.7 4387 4411.9 4488.6 4439.3 4378.3 4315.6 4300 4438 4577.2 4588 4422.5 4305.5 4344.6 4330.8 4337.5 4330.3 4301 4331.9 4316 4334.1 4354.2 4358.6 4371.7 4313.4 4318.7 4339.8 4392.6 4432.3 4395.3 4363.5 4364.4 4411.6 4378.3 4281.4 4299.6 4371.8 4401.9 4501.5 4441.7 4381.1 4352.9 4383.1 4473.1 4520.1 4516.2 4496.3 4455.1 4524.5 4530.9 4491.6 4435.2 4417.4 4378.9 4373.9 4419.4 4434.4 4418.1 4413.7 4461.8 4503.7 4587.1 4673.4 4666.5 4511.7 4387.7 4351.1 4375.2 4398 4499.9 4500 4355.6 4290.2 4305.8 4348.7 4346.8 4384 4407.2 4412 4448.6 4418.7 4405.5 4446.1 4459.5 4484.9 4414.5 4419.1 4425.7 4403.2 4407 4446.7 4417 4370 4393.6 4497.7 4524.4 4549.5 4507.2 4465.2 4503.7 4516.1 4581.5 4516.7 4446.5 4425 4428.1 4513.2 4552.2 4575 4515.3 4459.9 4505.1 4518.9 4537.3 4554.5 4542.8 4553.1 4602.7 4646.9 4664.3 4691.9 4672.2 4562.4 4525.6 4550.6 4561.4 4479.5 4443.3 4459.6 4466.7 4619.5 4700.4 4613.9 4551.5 4557.6 4586.6 4620.1 4559.9 4552.3 4592.1 4629.3 4689.4 4647.6 4524.2 4482.6 4509.3 4505.9 4576.6 4631.5 4729.4 4696 4551.9 4591.6 4738.3 4723.6 4699.7 4650.8 4618 4641.8 4590.7 4441.3 4393.5 4473.5 4514.1 4571.8 4608 4584 4575.1 4578.9 4557.3 4571 4530.2 4535.8 4473.1 4427.4 4458.4 4468.1 4513.5 4471.2 4440.9 4458.5 4557.7 4620.4 4638.3 4622.2 4589.5 4546.3 4590.6 4575.5 4580 4454.9 4431.9 4426.6 4429.8 4457.6 4456.9 4466.9 4471.3 4411.1 4387.4 4396.8 4407.7 4422.5 4446.3 4493.4 4470.6 4404.5 4378.1 4384.5 4484.9 4500.7 4431.9 4423.5 4473.8 4566.4 4494.5 4393.6 4383.1 4402.9 4417.3 4478.4 4554.2 4445.3 4396.5 4406 4356.4 4327.5 4342.8 4343.1 4403.7 4435.4 4396.2 4294.5 4321.9 4438.4 4391 4339.4 4403.1 4499.3 4504.8 4418.9 4328.6 4285.3 4306.5 4352.1 4328 4394.6 4360.3 4253.2 4266.3 4360.8 4470.9 4426.5 4326 4227.2 4239.3 4280.6 4292.2 4254.1 4181.3 4223.7 4272.3 4250.7 4280.7 4278.7 4329.3 4315.4 4347.9 4342.2 4326.7 4377 4432.1 4442 4396.5 4331.8 4357.3 4321.3 4289.4 4327.2 4377.1 4434.9 4371.4 4326.3 4315.7 4368.8 4378.6 4334.7 4358.4 4364.4 4373.7 4408.8 4309.3 4245.8 4236.9 4241.4 4356.8 4395.7 4413.6 4440.9 4422.7 4362.5 4402.4 4469.7 4429.6 4360 4411.2 4465.9 4507.5 4448.6 4386.7 4277.5 4206.7 4258.4 4247.3 4200.2 4172.6 4204.5 4273.7 4383.6 4442.4 4455.1 4374.9 4338.1 4368.6 4463.6 4466.6 4435.4 4368.8 4260 4279.5 4357.7 4403.2 4474.1 4408.4 4340.5 4355.7 4397.2 4349 4324.3 4413.4 4547 4509.9 4418.7 4348.1 4357.4 4427.3 4449.6 4407.1 4368.3 4371.9 4364.2 4381.2 4352.1 4397.8 4425.6 4372.9 4339.3 4346.2 4361.7 4358.5 4353.8 4385.3 4416.7 4359.7 4378.9 4378 4310.1 4299.2 4317.9 4306.7 4326.6 4340 4348 4461 4485.2 4483.2 4488.8 4407.5 4345.6 4279.3 4306.9 4378.4 4324.7 4252.5 4297.1 4355.6 4414.7 4491.2 4445 4374 4365.4 4377.3 4362.9 4387.6 4411.5 4401.8 4341.2 4285.5 4284.5 4339.6 4340.1 4296.3 4309.5 4464.6 4564 4460.4 4287.6 4240.5 4230.7 4285.5 4347.9 4298.1 4287.8 4301.3 4290 4296.2 4267.8 4282.5 4306 4391.9 4375.1 4266.3 4240.7 4233.1 4255.7 4307.1 4352.8 4405.5 4342.3 4251.4 4164.2 4180.8 4287.1 4366.6 4382.9 4306.6 4235.4 4246.7 4278.1 4338.2 4397.5 4432 4425 4403.5 4500.5 4505.1 4404.6 4297.2 4196.2 4214.4 4312.3 4308.6 4349.2 4288.9 4247.5 4304 4396.2 4402.1 4384 4420.3 4456.5 4515.7 4428.3 4364.8 4301.6 4187.4 4180.1 4177.2 4149.4 4204.8 4261.1 4284.7 4283.5 4313.4 4326.7 4266 4269.6 4276.3 4303.9 4287.9 4275.4 4301.3 4272.7 4331.3 4369.4 4356.1 4440.7 4468.5 4410.8 4298.2 4235.7 4257.6 4290.3 4340.7 4338.9 4328.9 4373.1 4326.1 4302.6 4368.3 4395.1 4311.4 4318.6 4369 4383 4318 4244.2 4273.5 4302 4249.8 4243.1 4265.1 4331.9 4347.3 4271.4 4210.8 4171.2 4157.1 4210.2 4219.7 4211.1 4256 4262.1 4248.3 4290 4346.8 4366.2 4357.9 4335.8 4363.2 4350.2 4275.9 4316.9 4267.5 4251.8 4284.3 4279.5 4255.3 4224.4 4196.4 4257.4 4321.4 4331.8 4280.7 4256.7 4266.6 4340.8 4458.7 4447.4 4469.9 4476.8 4292.4 4201.2 4221.1 4290.9 4358.5 4334.4 4367.2 4398.2 4392.1 4324.1 4251.3 4290.9 4245.2 4250.6 4249.8 4295.8 4313 4227.7 4213.6 4226.3 4219.4 4201.9 4204.6 4274.3 4333.6 4356.7 4399.7 4385 4352.6 4345.4 4402.1 4447 4418.8 4290.5 4205.4 4223.9 4243.9 4265.3 4275.6 4215.6 4249.2 4380.7 4503 4506.8 4373.2 4317.5 4339.7 4404.4 4305.1 4215.2 4176.7 4122.4 4169.5 4156.2 4149.2 4115.5 4114.4 4184.2 4271.5 4324.3 4313.4 4301.4 4330.7 4344.8 4368.7 4352.3 4358.2 4422 4457.5 4463.2 4354.7 4245 4208.8 4186.2 4213.8 4230.1 4265.2 4251.4 4207.9 4292.1 4423.6 4421.5 4348.1 4287.8 4279.4 4236.7 4186.6 4209.6 4287.7 4310.4 4297.4 4303.1 4255 4333.8 4357.7 4323.1 4381 4491.6 4430.9 4329.3 4232 4213.1 4298.3 4322.4 4289.5 4249.9 4232.9 4249 4242.5 4284.9 4304.1 4315.2 4252.2 4222.2 4219.6 4259.6 4365.8 4385 4363.1 4359.5 4251.9 4306 4289.7 4191.4 4183.2 4207.1 4253.8 4291.7 4373.7 4399.5 4269.7 4229.8 4235.3 4335.9 4416.2 4343.9 4182 4129.9 4210.1 4323.9 4316.9 4207.6 4152.3 4190.9 4188.3 4291.4 4340.6 4271.9 4246.9 4177.9 4188.3 4302.1 4355.4 4279.3 4187.4 4222.5 4240.5 4274 4289.4 4251.8 4243 4287.3 4433.7 4462.9 4379.1 4350.4 4445.2 4484.1 4424.6 4333.7 4201.4 4166.8 4175.2 4154.8 4188.7 4244.8 4282.7 4353 4346.7 4332.9 4348.8 4332.1 4363 4319.5 4319.3 4371.6 4349.7 4233.9 4201.8 4216.1 4239.2 4283 4185.1 4092.3 4089.2 4136.9 4272.8 4347 4361.3 4367.7 4306 4263.1 4323.5 4360.4 4328.7 4273.7 4259.8 4245.8 4231.9 4200.9 4149 4240.3 4283.4 4238.6 4266.4 4299.2 4337.8 4348.5 4356.6 4313.9 4267 4231.3 4197.6 4225.9 4301.1 4311.7 4259.8 4248.7 4291.1 4267.6 4221.6 4280.7 4328.4 4344.6 4355.3 4302 4266.2 4223 4259.8 4249.7 4248.8 4348.9 4355.9 4322 4227 4139.8 4212.3 4275.8 4363.6 4486.7 4484.5 4508.4 4472.8 4449.5 4378.2 4336 4272.6 4205.1 4311.2 4409.9 4372 4205.8 4116 4192.2 4265.1 4389.1 4435.7 4387.5 4308.2 4256.3 4275.1 4308.7 4314.6 4274.7 4241.7 4245 4276.1 4295.8 4259.5 4212.2 4249.5 4324.2 4382.5 4385.6 4357.4 4327.5 4285.9 4349 4399.4 4415.5 4339.7 4223.8 4202.9 4205 4213.9 4194.4 4185 4227.9 4270.8 4275.4 4370.5 4387.5 4370.1 4409 4471.4 4491.6 4400.3 4382.1 4218.3 4131.4 4256.8 4356.9 4394.8 4333.6 4311 4327.5 4338.9 4325.2 4376.5 4314.8 4192.3 4299.7 4432.5 4326 4235.3 4162.2 4131.8 4191 4213.9 4252 4231.3 4186.6 4206.6 4243.7 4248.8 4219.4 4214.7 4236.2 4248.9 4296.5 4275 4238.4 4202.1 4143.9 4127.7 4152.3 4202.6 4220.7 4233.9 4274.4 4341.7 4355 4364.1 4378.9 4399.8 4388.1 4248.6 4147.9 4119.3 4212 4217.7 4195.1 4221 4203.9 4161.4 4151 4196.4 4234.1 4251.2 4272.7 4314.8 4397.9 4343.9 4349.4 4329.1 4327.5 4272 4255.8 4294.9 4326.3 4330 4274.4 4177.2 4171.6 4173.6 4164 4189.9 4197.5 4199.1 4189.5 4261.3 4342.5 4416.5 4341.8 4223.6 4262 4322.7 4359.2 4384 4367 4421.3 4497.8 4623.7 4792.1 4846.4 4804.4 4829.4 4983.7 5072.3 5017.2 5068.4 5225.5 5463.8 5641.3 5790.4 5859.1 5783.9 5870.4 5976.2 6052.7 6013.4 5994.4 6060 6083.2 6040.1 6072.3 6039 6054.3 6002.2 5925.3 5872.5 5783.7 5578.5 5275.5 5011.1 4812.6 4732.5 4564.1 4353.2 4321.7 4263.3 4093.4 3989 3948.6 3885.2 3784.8 3822.1 3875.3 3706.5 3653.5 3716.5 3801.2 3870.2 3916.3 4003.7 4050.1 4094.5 4181 4261.8 4323.8 4255.2 4168.3 4147.7 4168.7 4205.8 4269.5 4358.7 4325.6 4256.7 4264.8 4364.6 4434 4368.7 4245.6 4196.1 4202.1 4232.2 4228.7 4285.5 4240.3 4190.4 4268.5 4303.9 4260.8 4223.5 4258.1 4315.8 4388.3 4454.5 4410.4 4321.4 4317.2 4357.2 4396.9 4432.7 4441 4416.4 4362.9 4312.5 4283.4 4260.4 4296.5 4266.9 4215.7 4224.7 4320.1 4359.3 4389.7 4374.3 4325.3 4326 4429.5 4494.8 4450.2 4316.2 4304.2 4297.1 4266.1 4202.6 4144.6 4202.7 4291.2 4318.3 4319.2 4348.8 4363.9 4342.2 4328.1 4334.6 4285.7 4228.2 4174.6 4209.7 4317.4 4276.9 4243 4255.8 4301 4326.5 4372.4 4390.6 4401.9 4295.3 4309.5 4333.3 4329.3 4264.1 4226.1 4272.5 4357.5 4366.3 4346.1 4314 4264.2 4257.3 4314.9 4387.2 4419.2 4349.6 4291.1 4309.7 4356.7 4439 4393.7 4313.2 4309 4288.7 4317.8 4398.7 4348.3 4293.7 4395.2 4433.6 4451.6 4480 4449.8 4470.1 4465.9 4492.9 4479.5 4447.5 4487.8 4429.9 4369.6 4368.5 4324 4177.1 4158.4 4205.7 4288.1 4350.5 4423.3 4492.9 4469.1 4375.7 4296.5 4301 4285.8 4265.8 4222.6 4238.2 4317 4420.5 4451 4453.9 4406.2 4368 4393.6 4479.3 4431 4369.6 4372.8 4399.6 4345.4 4278.2 4299.4 4309.5 4318.3 4361.8 4374.2 4364.8 4353.3 4329.4 4360.3 4403.8 4507.3 4499.2 4442.9 4498.3 4565.1 4554.8 4525.1 4523.6 4463.8 4397.3 4402.6 4423.2 4379.2 4357.5 4376.9 4442.4 4431.6 4531.4 4564.8 4523.4 4495.7 4494.9 4523.5 4571.1 4510 4468.4 4464 4459.2 4433.5 4409.6 4415.1 4420 4490.6 4532.5 4563.5 4567.5 4511.8 4501.8 4552.7 4558.2 4598.3 4558.9 4542.5 4516.9 4571.4 4586.9 4531.9 4486 4434.8 4381.3 4360 4360.7 4468.7 4527.7 4458.4 4457.4 4465.5 4511.7 4480.9 4429.9 4384.3 4379.8 4433.7 4473.1 4466.9 4403.8 4395 4423.2 4499.3 4527.7 4454.4 4433.4 4511.2 4618.7 4653 4467.2 4401.8 4362.1 4317.7 4405.1 4472.6 4415.4 4383.6 4370 4381.4 4392.9 4439.5 4454.7 4409 4390.8 4389.8 4415 4386.9 4345.3 4285 4265.3 4337.5 4420.9 4363.2 4276.8 4234.2 4274.7 4317.4 4373.9 4325.1 4286 4296.9 4346.2 4347 4337 4300.8 4317.4 4357.9 4477.8 4440.5 4397.8 4332 4187 4175 4239.5 4282.4 4284.8 4240.6 4226.8 4205.9 4264.8 4323.8 4339.1 4329.6 4228.9 4215.8 4280.6 4230.7 4221.9 4274.9 4284.5 4231.2 4225.1 4330 4346.4 4326.6 4315.2 4350.3 4316.6 4254.9 4260.4 4190.7 4157.7 4188 4212.5 4212 4151.2 4140.9 4137.1 4206.7 4295.5 4313.4 4308.1 4263.3 4268.3 4296 4273.5 4228.7 4188.6 4226.5 4354.9 4410.1 4357.8 4363.1 4289.9 4160.4 4183.8 4308.5 4463.8 4463 4329.9 4273.2 4306.2 4259.8 4242.4 4218.3 4210.3 4179.5 4201.5 4171.6 4198 4246.2 4305.1 4352.5 4341.3 4345.2 4306.9 4276.5 4283.8 4308.1 4261.8 4202.6 4172.6 4188.6 4203.3 4205.1 4212.3 4268.9 4240.7 4160.2 4226.1 4356.5 4331.7 4326.8 4327.3 4334.2 4337.2 4254.4 4225.1 4241.6 4262.1 4296.5 4297.5 4301.9 4263.4 4252.4 4261.4 4297.6 4360.2 4399.7 4406.5 4417.8 4382.1 4367.9 4309.7 4261.8 4287.5 4329.5 4373.7 4429.5 4413.9 4277.5 4237.5 4256.8 4283.2 4333 4396.8 4245.2 4264.7 4313.8 4300.4 4280.4 4240.7 4238.1 4303.2 4370.1 4363.5 4264.9 4202.8 4149.4 4203.5 4303.9 4357.9 4337 4293.4 4357.2 4351.9 4266.8 4209.9 4167.2 4176 4136.3 4130.7 4175.1 4192.3 4224.4 4264.3 4240.5 4178.9 4233.3 4298.3 4254.3 4257.1 4309.5 4354.3 4350 4306.9 4265.6 4165.4 4131.8 4217.1 4307.4 4339.6 4351.5 4336 4331.8 4359.4 4370.5 4353.8 4383.2 4465.8 4422.9 4333.9 4280.8 4257.7 4164.7 4120.7 4198.8 4214.6 4172.2 4254.2 4373 4414 4283.8 4251.7 4247.8 4227.6 4270.8 4284.3 4310.3 4279.6 4213.4 4142.3 4175.4 4294.1 4267.3 4178.7 4111.3 4139.8 4210.1 4225.2 4252 4264.6 4230.4 4198.2 4254.4 4363.1 4391.4 4365.2 4266.9 4132.7 4151 4202.7 4197.2 4119.4 4054.9 4165.3 4256.5 4336.1 4402 4332 4214.6 4119.4 4131.5 4159.9 4162.8 4179.7 4172.7 4162.6 4163.9 4143.8 4159.3 4113 4166.4 4251.9 4267.9 4228.2 4247.1 4340 4316.4 4262.4 4227.4 4230.2 4301.4 4329.5 4368.3 4360.1 4180.1 4103.8 4144.7 4273.4 4345.2 4317.6 4347.9 4369.7 4379.6 4327 4292.3 4264.3 4202.4 4202.1 4162.5 4221.1 4186 4148.8 4108.5 4134.6 4225.3 4172.8 4199.9 4308.9 4306 4214.6 4234.7 4334.9 4280.8 4233 4200.6 4154.9 4132 4172 4225.1 4201.8 4151.5 4137.2 4136.8 4167.7 4287.5 4417.2 4380.8 4270 4207.3 4209.1 4220.1 4248.3 4232.1 4257.3 4272 4211 4113.3 4080.8 4161.9 4295.7 4263.3 4237.8 4250.6 4211 4236.4 4288.4 4299.1 4313.3 4293.4 4276.6 4314.5 4310.4 4235.8 4146 4100.1 4097.2 4161.3 4184.7 4219 4247.3 4233.7 4251.5 4284.8 4227.9 4139.3 4173.3 4270.1 4205.7 4162.8 4217.8 4310.6 4208.4 4169.9 4255.6 4278.1 4291.3 4267.9 4302.8 4351.8 4291 4237 4200.3 4186.7 4192.1 4136.8 4177.2 4321.2 4372 4378 4192.4 4043.7 4085.4 4210.6 4345.6 4370.3 4341.6 4275.5 4281.8 4267.7 4261.7 4268.1 4162.2 4196.6 4364 4313 4207.7 4164.5 4186.8 4223.8 4269.5 4308.7 4323.2 4318.6 4357.7 4380.3 4398 4410.9 4359.3 4252.5 4173 4207.1 4222.5 4220.7 4225 4298 4395.6 4423.3 4364 4277.3 4259.2 4253.6 4272 4277.9 4228 4204 4184 4210.9 4262.2 4275.6 4306.2 4293.6 4266 4281.8 4356.3 4437.2 4415 4422.8 4348.8 4245.5 4283.1 4239.3 4203.5 4182.5 4147.9 4182.5 4237.1 4298.5 4272 4253.5 4255.5 4239.7 4311.6 4277.9 4236.6 4227.3 4221.3 4310.9 4392.2 4360.3 4234.7 4203.6 4231.2 4207.7 4188.4 4131.1 4153.3 4222.3 4268.1 4247.5 4263.2 4271 4269.9 4287.7 4305.7 4295.9 4239.7 4192 4213.9 4221.1 4196.6 4154.2 4131.4 4166.5 4284.4 4272.1 4262.5 4255.3 4253.5 4320.7 4325.9 4290.3 4276 4305.2 4283.7 4239.4 4290 4332.8 4198.2 4144.8 4189.6 4302.5 4282.1 4238.1 4220.4 4234.7 4219.3 4273.2 4335 4259 4140.2 4050 3968.2 4026.3 4113.3 4130.7 4140.5 4096.8 4109.1 4206.9 4297.9 4294.3 4288.3 4316.6 4337.7 4425.4 4499.9 4394.7 4231.1 4106.5 4058.3 4109.2 4095.6 4118.7 4095.8 4089.8 4122.1 4177 4284.6 4305 4279.4 4296.9 4386.1 4424.3 4374.2 4370.1 4386.8 4374.1 4360 4370.2 4392.1 4425.5 4436.2 4534.4 4631.9 4763.5 4787.7 4902 5043.4 5180.1 5339.7 5400.1 5490.9 5513.5 5529.7 5674.7 5776.7 5873.2 5918.4 5945 5985.6 6009.2 6063.7 6045.9 6061.6 6133.8 6242.2 6298.4 6230.7 6097.4 5855.6 5557.4 5445 5318.5 5039.2 4772.9 4535 4518 4660 4642.3 4304.6 4027.9 3907.4 3874.3 3916.3 3913.9 3852.8 3747.6 3720.5 3827.7 