0.008871 56.274 85.708 79.963 54.099 34.403 38.204 60.806 79.487 71.905 35.374 -7.7006 -23.237 10.847 87.142 170.21 216.96 202.93 137.28 56.777 3.0737 -1.7868 33.858 79.853 104.92 95.113 58.584 15.637 -17.109 -36.642 -51.503 -71.034 -95.292 -113.65 -112.88 -88.067 -47.879 -9.9823 9.9656 7.7419 -8.1962 -24.089 -31.113 -31.014 -33.466 -47.652 -74.523 -105.2 -126.21 -127.3 -106.53 -69.658 -25.689 17.526 54.695 81.853 95.324 93.122 78.048 59.175 48.808 55.563 78.126 105.07 122.45 125.07 123.41 140.19 197.01 299.02 428.03 549.86 632.68 665.32 663.93 662.5 692.89 767.23 873.44 986.29 1085.8 1170.3 1255.8 1362.2 1496.5 1644.8 1778.1 1869 1906.7 1901.8 1877.8 1856.5 1846.5 1842.3 1832.6 1810.9 1779.2 1743.3 1703.4 1648.4 1558.8 1418.3 1225.4 998.12 767.63 564.19 404.56 287.15 196.94 115.71 30.967 -60.928 -156.86 -250.66 -334.87 -400.39 -436.67 -435.29 -396.14 -332.09 -267.23 -227.09 -225.42 -255.44 -291.92 -304.34 -273.8 -203.75 -117.7 -45.494 -6.6394 -0.87472 -11.272 -16.799 -5.5389 19.893 47.23 65.057 70.933 71.656 76.45 88.972 104.43 113.74 110.92 97.761 81.922 70.267 63.139 54.598 38.851 17.801 3.1632 10.315 47.429 107.63 170.49 212.94 222.68 205.1 178.81 162.62 163.06 171.09 170.33 150.81 118.3 92.254 93.324 128.91 186.65 240.49 265.32 250.74 205.17 148.64 99.872 66.504 44.423 24.855 2.8362 -19.622 -37.478 -49.588 -62.098 -84.65 -121.66 -165.3 -196.18 -192.62 -143.17 -54.505 50.39 142.78 201.02 218.55 203.43 171.43 138 113.7 103.96 110.84 133.77 168.35 205.39 232.77 240.81 228.31 204.95 187.27 189.77 216.2 256.53 291.67 303.33 282.92 234.69 171.95 109.69 58.495 22.992 4.2356 2.9358 20.377 56.446 106.85 162.34 211.24 243.73 255.21 246.78 222.92 188.81 149.11 108.82 74.288 52.629 49.016 63.603 90.635 120.98 146.73 164.73 176.52 184.79 189.34 186.02 169.94 140.73 105.68 77.625 68.259 81.162 109.47 140.21 162.71 175.18 184.97 201.95 229.76 261.08 280.82 275.35 241.97 192.03 145.45 119.92 121.31 141.28 163.1 171.85 162.73 142.95 126.73 127.18 149.64 189.86 236.69 277.16 300.96 302.99 283.67 248.01 203.98 160.49 125.22 102.94 94.93 99.798 115.01 137.95 165.82 194.57 218.57 231.87 231.16 218.36 200.72 187.48 184.76 191.97 202.45 208.24 206.08 200.24 200.18 214.4 244.77 285.46 327.08 362.94 392.44 418.84 443.13 459.13 454.55 418.86 352.83 273.07 206.76 178.65 197.72 251.84 314.25 358.11 370.31 356.26 333.3 317.95 315.66 319.5 317.73 304.06 283.01 266.61 265.39 280.49 302.9 320.36 326.69 326.61 332.09 352.68 386.66 419.6 431.95 411.1 359.96 296.34 243.25 216.02 214.31 223.54 224.8 206.65 171.82 135.12 114.26 119.61 148.69 188.37 222.59 240.79 242.25 234.36 226.69 224.73 227.11 227.55 219.89 202.85 181.42 164.29 158.74 166.48 182.77 199.46 209.88 212.33 210.06 207.81 207.55 206.55 199.31 182.12 156.85 130.77 112.18 104.47 102.93 97.229 78.246 45.143 7.5545 -18.995 -21.898 1.0678 40.388 80.278 107.1 115.13 106.29 85.283 54.727 14.64 -33.42 -81.726 -116.5 -124.62 -103.02 -63.7 -28.88 -17.841 -33.483 -58.392 -64.757 -33.02 32.66 103.24 140.17 118.48 42.905 -53.843 -129.86 -157.95 -139.18 -97.446 -59.715 -36.13 -14.28 28.297 102.49 192.91 261.85 270.67 204.97 86.552 -36.723 -117.27 -133.88 -101.07 -56.315 -34.275 -45.055 -70.358 -78.927 -49.96 11.446 76.75 111.95 98.71 44.974 -20.92 -67.719 -78.564 -57.757 -24.43 0.99986 8.1707 -0.46197 -15.14 -27.016 -32.912 -34.281 -32.744 -26.774 -12.454 12.452 44.592 74.574 90.652 84.275 54.199 7.0874 -45.157 -89.479 -115.34 -117.12 -95.373 -56.894 -13.26 22.586 41.038 39.799 24.628 5.8488 -7.8091 -14.351 -19.218 -30.838 -53.841 -84.561 -112.13 -124.71 -116.87 -93.209 -65.744 -46.816 -42.064 -47.816 -54.114 -50.971 -33.773 -4.9791 27.882 55.702 70.491 66.676 42.008 -0.92618 -53.22 -100.3 -126.39 -121.83 -89.24 -43.809 -5.9068 10.636 7.4599 1.2833 13.112 52.996 110.17 156 159.47 106.59 11.788 -86.574 -145.01 -137.69 -69.992 24.955 104.61 139.53 127.16 89.896 59.521 58.04 85.971 124.02 145.86 133.67 87.459 23.667 -34.812 -70.687 -79.454 -68.518 -50.038 -32.615 -17.018 1.8714 28.677 61.226 88.726 96.131 72.532 18.751 -50.662 -112.9 -147.39 -145.75 -115.51 -75.341 -44.419 -32.068 -33.832 -36.116 -26.255 -1.4424 29.244 50.907 52.792 35.407 10.034 -8.9062 -13.305 -6.1454 1.5578 -0.71305 -15.086 -33.597 -43.722 -37.079 -15.092 12.183 32.88 40.588 36.87 27.675 17.022 3.3621 -18.262 -49.925 -85.674 -112.34 -116.73 -94.693 -55.324 -16.969 3.0207 -1.9241 -24.704 -50.268 -65.668 -67.37 -61.043 -54.861 -52.136 -49.352 -41.153 -27.937 -19.162 -28.369 -62.452 -112.92 -156.66 -167.55 -132.58 -61.787 15.206 65.008 69.12 33.666 -16.069 -52.632 -63.703 -58.315 -58.137 -80.053 -122.17 -163.1 -175.32 -143.9 -78.217 -8.4204 31.234 21.994 -29.081 -94.241 -141.99 -155.11 -138.86 -115.15 -107.15 -124.64 -158.7 -188.51 -194.87 -171.9 -129.9 -88.394 -64.483 -63.541 -77.506 -90.85 -90.013 -70.708 -39.485 -9.572 5.9915 0.15544 -25.829 -63.77 -102.09 -129.76 -139.35 -128.81 -101.92 -67.322 -36.003 -17.572 -16.459 -29.834 -48.675 -62.099 -63.121 -52.822 -40.241 -37.398 -51.688 -79.812 -107.13 -113.73 -84.679 -19.312 65.752 142.2 182.04 170.19 111.35 27.525 -52.517 -106.33 -126.77 -122.69 -111.55 -108.7 -119.15 -136.05 -145.99 -137.53 -107.99 -65.015 -22.425 6.753 16.308 8.8637 -6.6772 -20.526 -27.308 -28.684 -32.177 -46.876 -78.035 -123.1 -171.15 -206.4 -214.62 -189.74 -137.54 -74.331 -20.679 6.9422 2.7407 -26.927 -67.774 -105 -129.76 -141.21 -143.72 -141.73 -136.18 -125.07 -107.33 -86.791 -72.486 -74.122 -95.271 -129 -159.74 -171.15 -155.8 -120.43 -82.96 -62.489 -68.065 -93.148 -119.46 -128.09 -111.06 -76.206 -42.318 -27.522 -38.202 -65.322 -90.317 -96.754 -80.429 -51.75 -29.156 -27.88 -50.97 -87.787 -120.38 -133.46 -122.02 -92.45 -57.529 -28.921 -11.841 -4.4588 -1.3206 2.1608 7.151 11.872 14.003 12.847 9.7342 6.698 4.7104 2.8722 -0.96136 -8.7359 -21.001 -36.627 -53.33 -68.411 -79.283 -83.828 -80.916 -71.174 -57.551 -44.934 -38.505 -41.398 -52.94 -68.659 -82.233 -88.29 -84.437 -71.415 -51.684 -27.813 -2.0367 22.827 42.323 50.847 44.282 23.455 -4.2301 -27.082 -35.034 -26.095 -9.084 0.0086012 -13.087 -51.463 -102.78 -143.46 -149.84 -110.52 -33.107 58.318 133.81 170.41 160.76 113.55 46.929 -20.569 -76.437 -115.46 -136.95 -141.3 -128.88 -101.58 -65.024 -28.753 -3.2013 4.9559 -3.9566 -23.175 -43.771 -59.972 -72.057 -84.946 -103.5 -127.81 -151.81 -166.31 -164.63 -147.15 -121.9 -100.56 -92.42 -99.737 -117.06 -134.64 -143.59 -139.84 -124.95 -104.16 -83.314 -66.589 -56.02 -52.241 -55.401 -65.466 -82.002 -103.99 -130.05 -158.82 -188.84 -217.69 -241.03 -252.79 -247.28 -222.68 -183.93 -142.61 -113.1 -106.12 -123.38 -156.31 -190.13 -211.27 -213.98 -202.49 -187.62 -180.01 -184.01 -195.58 -204.99 -202.18 -181.58 -144.23 -96.792 -49.042 -11.285 7.7422 2.8622 -25.422 -69.548 -115.95 -149.58 -160.61 -149.82 -128.73 -113.31 -114.09 -128.77 -142.68 -137.64 -104.54 -51.197 -0.093974 23.758 7.4544 -41.813 -100.66 -142.82 -153.18 -133.66 -97.737 -58.642 -20.245 22.588 75.112 133.17 181.84 205.06 199.89 184.25 190.26 245.28 352.5 485.17 600.46 665.83 681.15 681.36 716.43 820.53 990.13 1185.6 1355.2 1466.3 1522.6 1557 1604.5 1676.5 1752.1 1794.5 1780.3 1719.6 1653.8 1629.1 1664.9 1737.3 1790.5 1768.3 1646.2 1444.4 1212.7 999.41 824.84 675.01 518.31 331.7 117.98 -96.304 -279.08 -412.77 -502.14 -565.86 -619.59 -663.91 -685.7 -670.85 -617.78 -541.18 -463.32 -399.94 -351.65 -307.29 -256.25 -199.77 -152.05 -129.97 -139.04 -166.61 -188.2 -183.02 -147.97 -99.808 -63.876 -56.942 -76.209 -101.91 -111.38 -94.599 -60.48 -30.097 -22.291 -41.925 -78.493 -114.89 -139 -149.54 -152.76 -153.8 -150.65 -135.83 -104.63 -62.873 -27.301 -16.958 -41.027 -91.661 -147.26 -184.47 -191.12 -171.73 -142.49 -119.53 -108.94 -104.51 -94.073 -68.954 -30.036 13.128 48.321 66.868 66.028 47.301 13.64 -31.306 -81.55 -127.35 -157.06 -162.57 -144.86 -114.85 -87.62 -72.714 -67.159 -56.742 -25.783 30.491 99.424 155.39 173.28 142.88 75.15 -3.4829 -65.147 -94.097 -92.009 -72.995 -52.945 -40.66 -35.82 -33.348 -29.435 -24.305 -20.377 -18.567 -16.795 -12.38 -6.0924 -3.6474 -12.22 -33.833 -60.795 -77.751 -70.399 -35.659 13.898 55.368 68.169 46.315 2.3523 -39.851 -59.049 -48.517 -18.588 11.3 25.379 20.732 7.3517 -0.17522 6.7807 25.146 42.517 45.418 27.685 -6.2179 -44.357 -74.224 -88.859 -89.014 -81.059 -72.775 -69.601 -72.838 -79.859 -85.717 -85.542 -77.212 -63.352 -51.268 -49.831 -64.022 -89.996 -114.36 -119.57 -93.617 -38.532 28.063 80.597 98.834 79.078 36.195 -5.252 -25.466 -20.382 -2.1549 10.949 8.2982 -5.1302 -12.041 4.841 49.806 109.44 159.44 178.63 160.9 117.84 70.75 37.966 25.654 27.377 31.309 29.234 21.152 13.334 12.59 21.731 39.356 63.076 92.478 128.71 170.99 213.42 245.8 259.14 252.07 233.37 217.63 216.17 229.26 245.2 247.66 226.73 186.46 143.66 118.44 122.39 151.92 190.6 218.82 224.31 207.34 178.21 149.87 130.82 122.66 122.53 127.64 137.91 155.02 179.09 205.97 227.48 234.82 223.2 194.95 159.51 130.19 119.02 131.42 162.77 198.55 218.87 206.89 157.81 84.17 13.032 -25.206 -12.026 48.114 127.96 190.4 207.82 177.08 120.78 73.61 61.756 87.976 131.61 163.13 163.42 134.93 97.657 73.272 69.152 73.853 67.395 38.863 -1.8825 -27.824 -12.45 50.172 137.14 207.11 223.85 178.2 94.304 15.79 -19.45 -0.24074 53.863 107.14 130.86 120.18 95.095 85.893 113.49 176.7 253.29 312.62 331.19 302.45 236.7 153.57 72.645 7.0074 -38.597 -66.217 -81.747 -91.667 -99.795 -104.68 -99.226 -74.012 -23.983 44.823 113.22 154.53 146.57 83.813 -17.468 -124.97 -204.72 -236.22 -220.27 -175.37 -125.83 -88.962 -68.652 -57.832 -46.688 -30.412 -11.716 2.389 6.1764 -1.205 -16.241 -34.474 -53.752 -74.888 -99.646 -127.96 -156.55 -179.69 -191.44 -187.84 -168.34 -136.47 -99.777 -68.625 -53.215 -58.974 -82.419 -110.65 -126.54 -118.14 -87.23 -50.777 -32.74 -49.591 -98.218 -154.65 -186.14 -170.33 -110.04 -33.671 19.822 22.851 -25.601 -100.93 -169.14 -207.6 -216.71 -215.35 -223.99 -247.76 -271.56 -270.69 -229.39 -154.24 -72.545 -16.518 -3.7189 -26.878 -59.858 -75.546 -63.6 -36.41 -19.903 -35.955 -88.353 -161.09 -229.02 -272.72 -287.5 -281.52 -266.16 -246.63 -220.07 -181.65 -133 -85.686 -56.208 -55.7 -81.824 -118.93 -146.85 -152.52 -136.82 -112.29 -93.846 -89.078 -94.546 -99.89 -95.967 -80.875 -59.895 -40.277 -25.574 -14.156 -2.8273 7.8768 11.643 0.022997 -30.455 -73.107 -112.39 -131.73 -123.08 -91.593 -52.125 -19.575 0.17699 12.447 27.469 50.23 74.053 83.178 63.264 12.791 -52.891 -108.55 -133.24 -122.62 -91.058 -61.766 -51.396 -59.424 -69.778 -63.834 -35.831 0.44768 19.411 1.5787 -50.173 -107.95 -133.44 -101.9 -20.725 70.344 119.38 91.964 -7.1888 -134.15 -228.45 -245.81 -182.02 -74.27 20.557 57.512 26.722 -44.728 -111.8 -138.89 -119.03 -74.528 -40.357 -41.914 -80.831 -136.4 -179.96 -192.17 -172.61 -136.92 -105.25 -90.047 -90.722 -97.194 -98.529 -90.438 -77.21 -67.946 -70.513 -87.28 -114.67 -145.66 -173.01 -191.09 -196.48 -187.95 -166.78 -137.25 -106.11 -80.542 -65.257 -60.533 -62.683 -66.895 -70.565 -74.681 -82.062 -93.618 -105.47 -109.46 -97.41 -66.752 -23.846 17.457 41.722 39.189 10.389 -34.308 -79.766 -112.85 -127.39 -125.3 -114.04 -102.5 -97.479 -102.12 -116.2 -137.27 -161.8 -185.88 -205.51 -217 -217.43 -205.32 -181.39 -149.15 -115.03 -87.495 -74.878 -82.253 -108.44 -144.9 -177.83 -193.11 -182.4 -147.11 -98.115 -50.984 -18.951 -7.3763 -12.49 -24.874 -35.446 -40.428 -42.652 -48.858 -64.972 -92.281 -126.54 -160.1 -185.57 -198.8 -199.9 -192.2 -179.96 -166.08 -150.93 -132.65 -108.94 -79.744 -49.459 -27.065 -23.144 -44.291 -87.45 -137.85 -173.13 -173.2 -131.33 -60.216 11.654 52.945 45.528 -5.2625 -72.67 -122.6 -132.29 -102.87 -58.36 -31.534 -44.817 -97.619 -167.35 -223.12 -243.42 -227.09 -191.44 -159.75 -146.57 -150.22 -156.33 -149.07 -122.08 -81.997 -43.366 -19.23 -14.383 -25.324 -45.708 -72.131 -105.34 -146.14 -189.78 -224.46 -236.36 -218.59 -177.78 -132.71 -104.66 -104.96 -127.82 -153.6 -161.08 -141.2 -103.63 -71.781 -69.099 -105.06 -169.19 -236.43 -280.2 -285.31 -253.77 -201.28 -148 -109.61 -92.989 -97.078 -116.15 -142.38 -166.78 -180.01 -174.91 -150.68 -115.93 -86.976 -80.555 -103.88 -148.21 -191.08 -207.26 -183.08 -125.46 -59.715 -16.471 -15.159 -53.585 -109.87 -155.48 -171.41 -157.76 -131.44 -113.94 -117.15 -136.14 -152.74 -147.38 -111.34 -52.322 9.5931 52.516 63.419 43.175 4.1497 -37.164 -67.893 -83.124 -85.73 -83.036 -82.659 -89.276 -103 -119.32 -130.57 -128.74 -109.08 -73.219 -29.8 8.2291 29.017 27.31 6.9863 -20.966 -44.035 -54.157 -50.755 -39.439 -27.718 -20.76 -19.739 -23.135 -29.185 -37.121 -46.261 -54.161 -56.158 -47.607 -27.785 -2.5009 17.285 20.983 5.0445 -23.654 -50.534 -61.194 -49.929 -23.575 1.9827 10.795 -3.9589 -36.04 -69.713 -88.528 -84.114 -60.141 -29.774 -8.7339 -8.15 -30.718 -71.212 -119.9 -166.49 -202.74 -223.67 -227.63 -216.02 -192.68 -162.76 -131.22 -101.91 -77.678 -61.449 -57.018 -68.231 -96.258 -136.61 -178.52 -208.3 -215.99 -201.27 -174.88 -153.36 -149.61 -164.8 -186.82 -197.02 -181.42 -139.83 -86.958 -44.827 -30.967 -49.47 -89.987 -134.57 -167.54 -182.17 -180.94 -170.42 -155.49 -136.98 -113.76 -86.63 -60.39 -42.12 -37.086 -45.591 -63.302 -84.668 -106.58 -129.25 -153.78 -178.71 -198.84 -207.86 -202.83 -186.76 -166.72 -148.32 -131.08 -108.89 -76.276 -36.225 -3.1199 3.1794 -30.286 -98.535 -177.28 -234 -245.8 -213.19 -160.37 -120.85 -117.04 -146.39 -183.37 -196 -166.55 -103.06 -34.362 7.7911 7.7017 -26.457 -70.459 -101.48 -113.01 -117.3 -134.25 -174.95 -231.59 -280.8 -298.08 -273.57 -218.52 -158.34 -116.93 -102.76 -105.52 -104.86 -85.015 -45.58 -1.5923 26.56 26.637 2.9525 -25.048 -32.553 -1.2929 73.023 180.87 305.12 428.85 540.62 635.81 715.05 782.33 843.96 908.13 983.8 1078.1 1192.6 1321.5 1451.4 1565.8 1651.3 1702.7 1725.3 1732.5 1739.3 1756.2 1783.6 1812.2 1826.4 1810.2 1752.9 1651.2 1508 1330.1 1125.6 903.48 675.16 455.34 259.99 101.41 -17.419 -105.34 -179.57 -256.92 -344.11 -433.03 -504.53 -539.35 -530.21 -487.87 -437.08 -404.37 -404.66 -434.26 -473.96 -500.02 -496.01 -459.15 -398.32 -326.74 -254.83 -187.57 -126.98 -75.946 -39.7 -23.196 -26.714 -43.647 -62.98 -75.319 -78.321 -77.463 -81.304 -94.41 -113 -126.62 -124.9 -104.97 -74.293 -46.934 -35.621 -44.58 -67.59 -92.092 -106.41 -105.57 -92.644 -75.707 -62.895 -58.623 -62.342 -69.44 -73.084 -66.267 -44.177 -6.938 38.244 77.433 94.213 76.988 25.868 -45.216 -113.49 -157.53 -167.28 -148.01 -115.76 -87.256 -70.544 -62.169 -52.27 -33.563 -7.7737 14.893 22.612 10.018 -18.304 -51.248 -78.775 -97.925 -112.83 -128.89 -145.82 -155.1 -144.5 -106.79 -46.743 18.963 69.361 89.892 79.485 49.72 16.94 -7.4143 -22.144 -34.4 -52.478 -78.487 -105.7 -122.08 -117.34 -89.198 -45.028 1.3939 35.999 49.91 41.944 17.654 -13.907 -43.973 -66.964 -81.755 -91.101 -99.529 -110.47 -123.93 -135.92 -140.27 -132 -110.32 -79.563 -47.268 -20.626 -3.4295 4.703 6.7522 5.9005 4.17 2.7774 3.2033 7.2598 15.435 24.738 28.46 19.378 -4.7199 -36.854 -61.818 -63.222 -33.227 21.063 79.381 118.18 123.16 96.748 55.666 20.052 1.2433 -3.7098 -7.2695 -19.964 -40.626 -55.661 -48.406 -12.306 41.552 88.644 105.21 83.602 38.559 -0.39383 -6.33 28.463 87.019 136.96 149.06 113.99 47.588 -18.028 -51.811 -39.379 11.477 77.303 132.52 161.8 164.82 152.35 137.25 126.55 118.75 107.1 85.852 55.616 24.579 5.2207 8.4063 37.953 88.328 146.56 197.42 229.5 239.35 231.88 216.94 204.1 198.26 198.31 199.1 195.21 184.18 167.34 148.57 132.07 121.05 117.62 123.17 138.09 160.36 184.27 201.08 202.36 184.73 152.93 118.63 94.792 88.651 97.616 111.16 117.75 112.38 99.739 90.729 94.616 112.3 135.41 152.05 155.11 147.33 139.27 141.58 156.73 176.27 185.56 173.05 138.02 91.65 51.021 30.218 34.148 58.405 94.053 133.15 171.11 205.32 232.43 247.86 248.58 236.75 220.6 210.42 211.72 220.44 224.48 211.69 179.32 138.32 108.5 106.82 135.83 180.3 214.76 217.83 184.79 130.3 79.718 54.266 59.229 82.085 101.28 99.83 75.362 40.988 17.072 19.299 49.982 97.04 140.46 162.21 154.3 121.51 77.997 40.038 18.376 13.555 16.274 12.693 -7.6403 -45.088 -88.231 -118.81 -121.42 -92.919 -45.963 -3.885 11.007 -10.683 -60.337 -116.23 -155.72 -167.37 -155.87 -136.92 -126.07 -128.74 -137.94 -140.64 -127.78 -101.04 -71.628 -52.547 -49.865 -59.262 -69.967 -72.984 -67.632 -61.876 -66.523 -87.603 -122.23 -160.44 -191.28 -208.55 -212.67 -208.21 -199.65 -188.85 -175.61 -159.82 -142.76 -126.08 -109.72 -91.208 -67.861 -40.647 -16.361 -5.3698 -15.348 -44.981 -82.5 -111.17 -118.95 -106.24 -86.12 -76.506 -88.888 -121.11 -158.93 -185.26 -190.77 -178.61 -160.36 -146.45 -138.27 -127.8 -105.11 -68.242 -27.87 -2.902 -9.145 -48.389 -105.18 -153.7 -170.88 -147.85 -93.573 -29.135 22.984 48.306 43.912 15.955 -25.579 -71.02 -112.35 -142.79 -156.78 -151.59 -129.4 -97.866 -67.662 -47.821 -41.631 -45.651 -52.573 -56.122 -54.894 -52.77 -55.851 -67.959 -87.497 -107.46 -118.43 -113 -89.264 -52.085 -11.534 20.795 36.221 32.4 14.127 -9.2137 -28.694 -40.862 -49.663 -63.467 -88.309 -121.36 -149.34 -154.22 -123.92 -61.824 11.597 67.313 82.737 54.539 1.2222 -46.88 -64.786 -47.069 -10.431 16.915 12.441 -27.577 -86.871 -140 -167.61 -166.28 -146.94 -124.28 -105.18 -84.553 -51.599 -1.4981 56.205 99.272 104.3 61.014 -20.009 -111.42 -182.79 -215.59 -210.7 -184.37 -156.29 -137.43 -125.35 -108.93 -78.631 -35.082 9.3565 36.777 33.332 -3.5989 -64.526 -132.93 -192.69 -233.65 -252.98 -253.18 -238.85 -214.75 -185.4 -155.35 -128.87 -108.55 -93.997 -81.974 -68.512 -52.067 -35.627 -25.996 -30.153 -50.532 -82.084 -113.26 -130.84 -126.36 -100.4 -62.475 -26.102 -1.7573 8.3604 10.749 15.836 30.71 53.659 73.959 77.426 54.811 8.2471 -48.216 -94.724 -115.32 -106.02 -76.769 -46.175 -31.963 -42.272 -72.464 -108.78 -136.38 -147 -142.13 -130.41 -121.41 -119.83 -123.43 -125.71 -121.16 -109.71 -97.581 -93.875 -105.01 -130.05 -159.72 -179.88 -177.95 -149.24 -100.09 -46.202 -6.5914 4.1815 -17.945 -65.007 -120.74 -167.78 -194.82 -200.34 -191.13 -177.04 -164.81 -154.8 -142.09 -120.97 -89.701 -52.56 -17.973 5.7018 13.893 6.7531 -12.788 -41.827 -78.675 -121.48 -165.7 -203.05 -223.92 -222.17 -199.53 -165.75 -133.8 -112.52 -101.48 -91.94 -73.721 -43.932 -11.404 6.7209 -5.1046 -50.354 -116.16 -178.48 -214.11 -212.48 -180.35 -136.77 -101.75 -85.812 -86.393 -92.542 -93.991 -88.286 -81.61 -83.548 -99.981 -129.05 -162.45 -190.36 -206.32 -208.8 -199.59 -181.3 -156.5 -128.96 -104.72 -90.718 -90.431 -99.458 -105.32 -93.53 -57.467 -5.888 38.145 48.194 9.941 -68.12 -156.34 -218.4 -230.79 -195.95 -140.57 -99.867 -96.942 -129.72 -173.23 -195.65 -177.92 -125.12 -63.062 -22.732 -22.715 -59.871 -113.05 -156.25 -172.6 -160.87 -132.34 -101.63 -78.346 -64.443 -57.437 -55.441 -59.577 -72.052 -92.045 -113.37 -126.45 -123.81 -105.29 -79.353 -59.121 -55.569 -71.897 -102.38 -135.97 -162.18 -175.63 -177.04 -170.89 -161.83 -152.22 -141.91 -129.8 -115.66 -101.12 -89.349 -83.835 -86.923 -98.614 -115.92 -133.05 -142.78 -138.86 -118.97 -86.72 -51.451 -25.372 -18.884 -36.206 -73.418 -119.93 -162.68 -191.02 -200.2 -192.05 -173.03 -150.83 -131.06 -115.3 -101.16 -84.296 -61.673 -34.656 -10.241 0.82764 -11.075 -48.548 -103.43 -158.07 -191.98 -191.3 -156.16 -101.62 -51.084 -25.345 -32.969 -67.183 -110.68 -145.23 -160.51 -157.46 -145.16 -134.31 -131.57 -138.16 -151.97 -170.72 -192.99 -216.58 -236.2 -243.37 -229.8 -192.54 -137.38 -77.425 -27.255 4.208 17.462 20.472 22.281 26.515 29.115 21.773 -1.3906 -38.567 -80.088 -113.55 -130.83 -132.37 -125.93 -120.71 -120.79 -122.33 -116.3 -95.154 -59.105 -18.004 12.661 19.508 -1.5318 -42.571 -87.195 -118.17 -125.4 -110.12 -83.308 -59.455 -49.115 -54.115 -67.734 -79.334 -80.569 -69.642 -51.484 -34.312 -25.107 -26.912 -39.198 -60.21 -88.79 -123.83 -161.75 -194.59 -211.35 -203.13 -169.35 -120.66 -75.428 -50.783 -53.194 -74.614 -97.234 -104.34 -90.569 -64.828 -43.973 -41.408 -58.41 -84.035 -103.43 -108.38 -102.19 -95.352 -95.367 -98.835 -92.748 -65.113 -17.585 29.813 47.158 12.395 -72.783 -180.15 -268.57 -306.57 -290 -243.37 -204.01 -198.79 -228.48 -269.13 -289.26 -270.94 -221.13 -166.37 -135.07 -139.63 -169.96 -201.88 -213.88 -200.72 -175.22 -157.95 -162.65 -187.13 -215.09 -226.78 -210.94 -170.5 -119.56 -74.647 -46.429 -36.314 -38.544 -45.056 -49.719 -50.273 -48.377 -48.801 -58.022 -81.591 -120.18 -165.99 -202.65 -210.68 -177.46 -106.55 -20.266 47.963 68.614 30.845 -51.537 -146.75 -220.81 -253.47 -245.4 -213.35 -177.36 -148.67 -125.59 -98.911 -61.851 -17.155 23.728 48.505 53.298 46.834 46.708 70.093 124.69 205.26 297.24 384.99 459.55 522.2 582.69 653.85 745.8 861.87 997.53 1141.8 1280.3 1399.4 1489.2 1545.9 1571.6 1571.9 1553.8 1524 1489.2 1458.3 1442.4 1452.1 1491.4 1551.1 1606.8 1624.6 1572.6 1434.7 1218.5 953.7 681.29 438.52 247.36 110.91 17.913 -48.757 -104.69 -160.63 -222.73 -293.6 -372.11 -452.22 -522.78 -570.52 -585.56 -566.69 -522.63 -468.15 -416.91 -375.72 -343.69 -316.62 -293.09 -277.22 -275.81 -291.54 -317.38 -337.11 -332.72 -294.74 -228.75 -153.66 -92.128 -58.944 -54.475 -66.936 -81.555 -90.146 -94.672 -102.79 -119.16 -139.43 -151.69 -144.91 -118.3 -84.206 -61.549 -63.134 -85.41 -108.31 -106.76 -67.489 -0.48302 63.207 87.361 51.516 -35.66 -139.21 -215.99 -237.73 -205.24 -145.39 -92.737 -67.489 -63.572 -54.608 -14.064 63.297 152.81 210.67 198.56 107.63 -32.835 -168.12 -245.54 -241.11 -170.52 -78.338 -12.332 2.0796 -27.151 -67.523 -84.143 -61.333 -10.975 36.485 51.879 25.479 -27.354 -75.744 -91.71 -66.194 -13.647 36.73 57.263 36.118 -17.804 -80.925 -127.53 -141.6 -122.28 -81.62 -37.21 -4.2383 9.5667 4.9021 -11.314 -29.588 -41.522 -42.713 -34.307 -22.64 -16.594 -23.216 -43.367 -69.889 -89.997 -91.494 -69.95 -32.798 2.5504 16.406 -3.2773 -53.975 -118.66 -173.25 -197.78 -185.66 -146.17 -99.253 -65.363 -55.913 -68.905 -91.53 -107.69 -106.17 -85.373 -52.83 -20.454 1.4251 8.3042 2.4664 -9.0642 -18.005 -18.017 -6.5491 14.898 41.733 67.948 87.965 98.167 97.615 87.705 70.979 49.827 25.941 0.91528 -22.558 -40.074 -46.543 -38.759 -18.063 8.9515 32.88 46.258 47.941 44.115 44.765 57.332 81.466 108.48 126.3 126.99 111.98 91.17 76.32 72.804 75.624 72.788 54.332 21.082 -13.115 -27.984 -8.7136 44.231 113.84 175.13 208.45 209.54 190.09 168.92 159.43 161.55 162.89 147.86 108.76 51.645 -6.2096 -45.149 -52.646 -28.138 18.589 73.267 123.27 161.04 184.32 194.77 196.3 193.71 191.03 189.6 186.94 178.02 159.09 132.13 106.21 93.666 102.38 129.03 158.73 172.88 160.91 128.36 94.597 80.793 95.234 126.41 149.57 143.43 106.1 58.859 34.012 54.088 116.19 192.52 247.45 259.95 236.2 203.52 189.76 202.49 222.89 218.91 169.03 79.784 -15.391 -75.7 -77.825 -29.131 39.422 95.15 124.58 138.79 160.16 200.99 250.58 281.01 267.84 210.8 138.56 92.741 101 157.39 223.99 253.58 219.12 131.14 31.927 -29.357 -24.85 37.763 122.21 185.64 201.13 167.89 105.64 39.89 -11.316 -42.121 -55.226 -55.548 -46.672 -31.418 -13.696 1.8085 12.599 21.025 33.186 53.689 79.955 101.07 103.28 78.94 32.675 -20.299 -62.962 -86.464 -94.222 -97.35 -105.08 -117.54 -126.31 -122.08 -103.03 -77.234 -56.995 -49.693 -52.714 -56.718 -54.695 -49.132 -50.678 -68.499 -99.789 -127.76 -131.62 -102.53 -53.555 -14.588 -13.273 -54.248 -111.74 -142.81 -114.48 -27.296 80.96 155.7 157.89 87.893 -14.988 -97.1 -123.42 -97.608 -56.575 -43.989 -80.7 -151.55 -216.55 -237.97 -205.06 -140.37 -84.587 -70.886 -105.73 -167.6 -222.74 -246.25 -234.89 -204.86 -178.25 -168.46 -173.96 -182.69 -182.2 -167.77 -143.64 -118.31 -98.478 -86.218 -80.383 -79.758 -84.714 -96.124 -113.05 -131.84 -147.75 -157.86 -162.6 -164.54 -165.11 -162.42 -152.08 -131 -101.3 -71.026 -50.652 -47.213 -59.959 -80.474 -97.253 -101.85 -92.795 -75.199 -56.831 -43.493 -36.49 -33.205 -29.733 -23.564 -14.815 -5.7204 0.94322 3.6087 3.1538 3.1181 8.4682 22.858 45.282 68.134 78.848 65.746 25.778 -30.482 -80.947 -101.91 -81.249 -27.12 34.121 71.132 64.97 20.292 -37.046 -75.185 -75.284 -42.555 -2.3456 16.234 -1.3491 -46.384 -93.117 -115.29 -102 -62.99 -20.754 4.1112 4.337 -12.775 -33.518 -48.251 -56.391 -63.21 -72.379 -81.26 -83.224 -75.096 -63.111 -61.399 -82.712 -127.49 -179.63 -213.22 -206.94 -157.18 -81.193 -8.0232 36.989 44.382 22.33 -11.846 -43.522 -67.675 -87.055 -104.67 -117.68 -118.04 -99.602 -65.617 -30.145 -11.044 -18.857 -49.288 -84.933 -105.58 -100.47 -74.565 -45.013 -30.525 -40.87 -72.767 -113.57 -148.9 -168.54 -167.65 -144.84 -100.86 -40.528 24.065 73.49 87.537 56.478 -9.855 -82.863 -128.16 -124.79 -79.128 -23.596 0.87631 -30.75 -111.1 -202.48 -257.16 -244.11 -166.16 -57.549 36.068 82.34 76.688 38.811 -4.581 -38.152 -65.154 -99.714 -151.04 -211.73 -259.08 -268.85 -232 -162.7 -91.748 -49.434 -48.589 -78.631 -113.83 -129.99 -118.69 -90.649 -66.896 -64.575 -86.463 -120.27 -146.97 -151.99 -132.42 -96.73 -58.87 -31.133 -19.928 -25.356 -43.048 -66.133 -86.678 -97.412 -94.477 -80.319 -64.325 -59.252 -74.199 -107.97 -147.61 -174.26 -173.76 -145.63 -104.2 -70.457 -59.272 -69.95 -86.645 -88.705 -64.521 -19.945 24.337 44.927 29.645 -15.506 -70.489 -113.42 -132.77 -132.03 -124.59 -123.02 -130.29 -138.4 -134.83 -111.88 -72.851 -31.165 -3.6435 -2.178 -28.493 -74.116 -124.57 -165.09 -185.39 -182.34 -160.39 -129.79 -102.7 -87.956 -86.422 -89.843 -84.891 -61.301 -19.731 25.959 54.702 49.993 10.615 -46.853 -96.256 -116.47 -103.48 -72.084 -45.844 -41.746 -59.515 -82.774 -91.206 -75.452 -44.506 -20.442 -23.865 -59.85 -113.77 -159.8 -176.35 -158.37 -118.86 -79.25 -55.754 -50.642 -53.553 -50.707 -34.972 -9.9455 13.833 26.781 26.203 16.474 4.4444 -5.533 -12.986 -18.696 -21.226 -16.436 -0.99792 22.881 46.016 56.387 46.747 20.312 -10.17 -30.207 -33.315 -25.915 -23.473 -39.987 -77.7 -124.14 -158.79 -165.35 -141.51 -100.19 -61.471 -40.849 -41.222 -53.426 -64.006 -64.426 -55.485 -44.573 -38.539 -37.811 -36.1 -25.777 -4.9243 19.12 32.448 22.05 -16.49 -75.689 -139.12 -188.83 -213.15 -210.83 -190.11 -163.53 -141.74 -129.24 -123.94 -120.29 -114.09 -106.32 -103.53 -114.34 -143.41 -186.34 -228.99 -252.53 -242.62 -197.97 -133.03 -72.567 -40.096 -46.308 -83.963 -132.38 -169.06 -181.76 -173.96 -160.84 -158.67 -174.27 -201.11 -223.87 -228.17 -208.97 -172.67 -132.12 -98.669 -76.445 -62.382 -51.059 -40.356 -33.732 -37.667 -56.347 -87.503 -122.31 -149.36 -160.01 -151.77 -128.17 -95.79 -61.094 -29.137 -4.3211 8.3336 3.3891 -22.664 -68.226 -125 -179.84 -219.71 -237.43 -234.92 -221.8 -209.98 -206.9 -211.32 -214.01 -203.13 -171.32 -120.59 -61.843 -9.3635 27.033 47.628 62.946 88.142 134.68 204.02 286.82 368.18 435.67 485.58 524.19 563.8 616.73 690.87 788.99 910.65 1053.9 1214 1380.9 1536.2 1656.1 1719 1715.9 1656.5 1568.3 1486.4 1439.2 1438.2 1475.4 1529.8 1577.7 1600.6 1587.4 1531.8 1429.1 1276.5 1077 843.81 600.35 374.33 187.87 49.454 -47.613 -119.37 -181.79 -243.44 -304.01 -358.3 -401.82 -433.81 -456.23 -470.67 -476.44 -471.96 -458.07 -440.09 -426.02 -421.34 -423.98 -423.47 -405.69 -361.01 -290.81 -208.26 -132.7 -80.771 -59.267 -63.055 -78.589 -90.404 -87.32 -66.076 -31.878 3.6412 26.383 25.038 -3.656 -51.862 -102.21 -134.65 -136.07 -107.67 -65.015 -29.733 -17.028 -26.528 -42.768 -45.771 -25.443 9.576 34.977 24.673 -32.747 -125.23 -221.77 -287.66 -301.29 -263.08 -192.34 -115.56 -54.172 -18.313 -8.312 -19.812 -47.435 -84.646 -121.9 -147.11 -150.41 -130.64 -98.498 -72.193 -67.046 -85.127 -112.2 -124.97 -104.83 -49.746 23.119 85.919 114.36 99.305 49.611 -14.151 -70.043 -103 -107.65 -86.683 -47.962 -2.6341 36.325 56.977 53.24 29.231 -0.81452 -19.043 -14.269 10.423 38.729 51.509 40.393 15.233 -0.75059 13.838 62.591 125.58 168.79 163.7 104.81 13.983 -71.321 -118.49 -116.22 -77.412 -28.298 7.9207 22.064 18.86 8.3683 -2.9856 -14.838 -28.145 -38.888 -37.054 -13.081 32.79 86.088 123.55 126.07 90.858 34.132 -18.003 -44.749 -41.904 -22.004 -3.8986 0.39196 -7.6935 -17.173 -18.062 -9.9051 -1.6151 -2.8636 -14.038 -23.089 -12.564 27.654 90.964 155.17 194 191.72 151.35 91.436 34.331 -5.9082 -28.221 -40.025 -48.304 -53.643 -51.469 -38.524 -18.399 -0.8077 5.44 0.3173 -5.3987 3.4162 35.197 83.944 130.9 155.29 147.18 113.74 74.349 48.029 41.724 47.61 51.003 42.925 27.974 21.562 38.261 79.647 130.69 167.9 174.18 150.2 114.43 91.216 95.08 121.58 151.25 163.93 153.69 134.09 129.62 159.03 221.42 294.54 346.98 356.39 322.3 265.38 214.03 187.14 184.04 187.72 178.35 147.57 104.25 68.243 57.054 74.88 111.12 148.8 176.2 193.35 208.83 229.94 254.14 268.71 259.74 224.1 175.32 138.11 134.04 167.3 220.59 264.28 273.92 244.79 194.43 151.43 137.87 156.86 192.69 222.89 233.25 225.74 214.38 212.94 223.8 236.24 235.22 214.06 181.38 156.87 158.35 189.17 234.88 271.87 282.21 264.73 234.78 212.93 210.5 221.82 228.31 211.51 166.04 103.95 47.809 17.47 19.241 43.938 73.989 94.025 97.941 88.913 74.179 59.58 47.825 40.494 40.425 51.042 72.39 97.335 112.31 103.9 67.919 14.442 -35.592 -61.475 -54.908 -25.243 6.2394 19.861 10.28 -10.09 -19.579 -2.4503 39.09 84.085 104.17 80.239 14.163 -71.544 -145.79 -185.31 -185.76 -161.69 -136.26 -127.63 -139.84 -162.81 -180.02 -178.72 -156.79 -123.16 -92.6 -78.253 -85.663 -110.4 -139.74 -157.37 -149.57 -111.03 -48.137 22.107 77.902 101.62 87.958 46.869 -0.98323 -34.689 -44.087 -35.017 -25.363 -33.688 -66.958 -114.81 -154.26 -162.65 -131.15 -71.027 -8.3722 29.592 28.817 -5.0103 -51.22 -86.965 -100.13 -94.669 -85.672 -88.019 -106.18 -131.67 -149.38 -148.16 -128.37 -101.37 -81.437 -75.773 -79.407 -78.769 -61.644 -26.932 12.509 36.296 28.605 -11.522 -68.158 -116.27 -134.82 -117.45 -74.708 -26.801 8.3036 24.24 27.689 31.653 45.24 66.504 82.756 78.045 43.214 -17.489 -87.136 -143.85 -171.3 -166.28 -139.37 -108.44 -88.434 -83.064 -82.829 -70.863 -33.751 28.37 98.28 147.59 150.03 95.701 -1.5364 -108.3 -186.5 -211.43 -183.57 -127.28 -76.769 -57.028 -70.514 -97.333 -108.66 -85.197 -29.514 35.241 79.1 82.805 48.186 -4.6619 -50.892 -75.897 -82.095 -83.773 -94.405 -115.75 -136.37 -140.21 -118.81 -78.211 -35.448 -7.3519 0.31965 -4.5555 -8.0177 -2.0767 7.8574 6.1313 -21.111 -73.485 -132.9 -172.56 -173.24 -136 -82.375 -41.185 -30.147 -44.416 -59.934 -49.793 -3.144 65.779 124.7 142.23 106.83 33.927 -42.974 -91.46 -97.488 -70.608 -34.955 -12.904 -12.272 -24.704 -34.883 -33.087 -22.058 -13.783 -19.22 -38.895 -61.417 -71.136 -59.547 -32.322 -6.7508 -1.0135 -22.269 -61.491 -98.541 -114.25 -101.84 -70.487 -39.247 -25.438 -35.048 -60.783 -88.22 -105.35 -109.15 -105.31 -102.22 -103.97 -107.22 -103.95 -87.674 -58.834 -25.616 0.038916 8.5424 -2.8474 -29.367 -61.526 -89.118 -104.35 -103.31 -86.48 -58.895 -29.892 -11.322 -13.609 -40.658 -86.315 -135.14 -168.21 -171.54 -142.57 -91.116 -34.079 12.658 40.417 48.728 41.698 23.44 -3.5659 -36.214 -67.386 -85.733 -80.756 -50.792 -8.0919 24.17 23.245 -19.361 -90.355 -159.41 -194.82 -181.41 -129.89 -71.401 -40.095 -53.916 -105.12 -165.99 -205.86 -208.74 -181.06 -145.51 -125.73 -131.96 -155.99 -177.73 -178.09 -150.01 -101.55 -50.646 -15.763 -8.1439 -28.804 -69.923 -118.27 -158.72 -177.65 -166.74 -126.73 -68.979 -12.444 24.299 32.502 18.485 0.40726 -2.7695 16.034 45.844 62.74 43.98 -17.298 -106.17 -192.94 -248.92 -261.28 -237.8 -199.12 -164.33 -139.71 -117.91 -87.143 -43.238 4.7218 39.293 46.682 27.107 -4.1855 -26.437 -27.145 -10.661 4.4585 -2.1716 -38.676 -94.342 -144.8 -165.67 -146.13 -94.477 -32.862 14.612 33.221 22.366 -7.3665 -41.39 -67.624 -79.368 -74.899 -56.103 -27.902 1.8315 23.617 29.963 19.939 1.5156 -11.058 -4.6065 24.664 67.172 103.52 114.33 91.001 40.999 -15.672 -56.882 -69.785 -56.789 -33.03 -17.286 -21.754 -46.219 -79.123 -104.05 -107.63 -84.972 -40.919 12.34 59.362 85.7 81.594 44.899 -17.295 -89.351 -150.9 -183.29 -176.49 -133.24 -68.148 -1.8534 47.182 69.169 64.871 42.532 12.185 -19.166 -49.097 -77.981 -105.92 -130.88 -149.23 -157.98 -156.79 -148.17 -135.72 -122.05 -107.89 -93.126 -78.687 -67.316 -62.163 -63.825 -68.182 -67.335 -54.041 -27.374 4.2475 25.6 22.417 -9.5508 -59.763 -106.13 -125.49 -105.94 -53.993 8.102 53.712 65.603 44.144 5.1504 -31.122 -52.823 -63.02 -75.766 -104.43 -150.23 -198.98 -228.86 -224.53 -188.47 -141.53 -111.46 -116.26 -152.72 -197.93 -223.37 -213.07 -174.26 -133.6 -120.84 -150.11 -210.42 -271.57 -301.62 -285.23 -231.46 -166.82 -118.5 -98.843 -100.55 -104.84 -96.197 -73.304 -49.281 -41.619 -59.469 -97.199 -138.36 -166.78 -176.55 -173.96 -170.48 -172.42 -175.24 -167.03 -138.54 -92.372 -44.113 -13.886 -13.904 -40.591 -77.005 -104.14 -113.44 -111.82 -115.67 -137.92 -177.07 -216.13 -232.31 -211.21 -156.18 -86.614 -26.549 8.9229 20.72 22.408 29.569 49.557 78.395 106.09 125.8 139.89 158.82 194.11 250.75 324.68 406.74 489.94 574.63 667.97 778.34 908.85 1054.5 1204 1345.5 1470 1572.3 1649.1 1696.9 1712.9 1698.9 1664.8 1627.9 1608.3 1619.8 1664 1728.1 1789.2 1821.9 1805.1 1725.5 1579.2 1370.8 1113.7 829.28 544.72 286.74 74.262 -87.029 -204.52 -292.41 -362.73 -419.26 -458.21 -474.94 -471.57 -459.52 -454.33 -465.73 -489.87 -509.89 -505.47 -465.75 -397.35 -321.59 -262.12 -230.5 -219.11 -206.14 -169.89 -103.65 -21.689 47.403 76.173 53.355 -10.188 -87.625 -150.28 -181.26 -181.33 -164.61 -148.05 -141.33 -142.81 -142.97 -132.25 -108.17 -77.57 -53.107 -46.241 -60.748 -90.163 -120.47 -136.69 -130.15 -102.89 -66.749 -37.392 -26.027 -33.085 -47.536 -52.734 -36.026 3.1285 51.426 87.944 95.231 69.014 20.741 -28.786 -61.082 -70.002 -64.102 -60.008 -71.077 -98.557 -130.82 -150.97 -147.87 -123.32 -90.828 -66.861 -60.262 -66.654 -71.404 -59.231 -24.431 24.573 69.05 89.813 77.373 36.887 -14.428 -55.527 -70.946 -56.952 -22.179 16.757 42.298 42.771 16.656 -27.017 -72.315 -102.97 -109.44 -93.28 -66.453 -45.142 -40.933 -54.034 -72.769 -80.262 -64.881 -28.266 14.291 41.945 40.37 10.524 -31.516 -63.782 -71.192 -53.987 -26.669 -8.3685 -10.936 -32.361 -59.34 -76.675 -76.792 -63.01 -44.863 -29.504 -15.903 3.7 36.073 78.84 118.38 136.17 119.99 72.686 12.468 -35.909 -53.87 -38.005 -0.29873 39.722 65.414 69.664 54.801 27.677 -5.3773 -40.087 -72.294 -95.828 -103.56 -92.008 -66.055 -39.404 -28.653 -43.771 -80.927 -122.88 -147.53 -139.75 -99.359 -40.369 17.66 60.277 84.143 95.241 101.74 107.32 109.81 105.42 94.63 84.337 84.087 98.996 124.73 148.78 157.73 145.75 118.47 89.526 72.147 71.579 83.276 97.668 107.65 113.26 120.44 135.23 157.9 181.69 196.71 196.32 181.15 158.28 136.43 121.07 112.69 109.05 108.91 113.84 126.75 148.28 174.38 197.25 209.22 206.84 192.35 171.61 150.56 132.75 119.76 113.33 116.68 133.4 164.18 204.4 244.71 275.17 289.97 289.52 278.35 260.42 235.95 202.4 159.25 112.5 74.744 59.369 72.234 106.53 144.99 168.85 168.13 146.8 119.64 103.05 105.99 126.56 155.4 182.51 202.26 213.66 217.23 212.56 199.25 180.53 165.53 166.51 191.59 237.59 288.81 324.04 328.17 300.64 254.98 209.33 174.69 149.24 122.85 88.123 49.226 21.21 19.534 47.415 90.886 126.28 135.6 118.97 94.453 84.739 99.466 126.21 137.3 108.69 37.981 -51.158 -122.08 -147.39 -125.58 -80.901 -46.828 -44.566 -70.972 -103.35 -116.68 -100.72 -65.203 -30.855 -13.881 -15.813 -25.56 -30.851 -29.237 -29.679 -43.639 -73.129 -105.83 -121.93 -108.09 -67.98 -20.853 11.282 18.863 10.846 6.7459 20.174 46.12 62.027 42.943 -19.41 -107.25 -184.42 -216.89 -192.92 -129.62 -61.87 -21.034 -17.289 -36.511 -52.486 -45.42 -14.431 23.227 44.264 33.88 -6.4429 -61.449 -111.5 -141.98 -147.62 -131.24 -100.15 -63.512 -31.286 -13.131 -15.531 -37.968 -71.249 -100.75 -114.02 -108.45 -93.49 -85.182 -95.893 -125.88 -162.55 -188.11 -190.62 -170.99 -141.46 -116.99 -105.88 -106.04 -108.89 -107.32 -101.32 -97.294 -102.07 -116.76 -135.49 -150.04 -156.31 -157.41 -160.3 -168.84 -178.74 -179.18 -160.54 -122.9 -78.444 -45.361 -36.54 -50.931 -73.775 -86.113 -77.442 -52.998 -30.626 -29.117 -55.57 -99.91 -139.89 -153.19 -129.1 -73.188 -3.2361 59.927 100.88 113.35 99.044 64.258 17.236 -32.995 -77.406 -108.79 -124.39 -127.49 -125.89 -127.31 -134.39 -142.55 -142.54 -126.37 -92.653 -48.079 -4.1017 28.489 43.49 39.603 18.146 -18.832 -67.783 -120.93 -164.84 -183.48 -165.74 -113.41 -43.796 16.373 43.561 29.769 -13.02 -59.493 -85.194 -79.864 -52.011 -22.27 -10.153 -22.668 -51.66 -80.734 -96.462 -96.23 -87.942 -82.645 -85.819 -93.54 -95.876 -84.642 -59.746 -29.638 -5.8276 4.4006 1.782 -7.115 -16.128 -24.883 -39.096 -65.306 -103.81 -145.14 -173.16 -173.7 -143.22 -92.219 -40.729 -8.3838 -4.8369 -26.01 -58.011 -85.895 -101.72 -107.22 -110.19 -117.58 -130.31 -143.05 -148.72 -144.2 -132.84 -122.02 -117.18 -116.86 -112.35 -92.927 -53.612 -0.4804 50.3 79.746 75.801 40.008 -12.791 -61.649 -89.641 -91.46 -74.662 -54.43 -45.158 -53.511 -76.244 -103.21 -123.33 -130.12 -124.37 -113.11 -105.78 -109.73 -126.66 -151.53 -174.34 -184.38 -175.23 -148.47 -113.83 -85.282 -74.241 -83.483 -105.12 -124.42 -127.71 -110.31 -79.679 -51.833 -42.805 -60.085 -98.834 -144.86 -182.15 -200.32 -197.74 -179.38 -151.97 -120.09 -85.934 -51.757 -22.254 -4.0287 -2.0604 -15.79 -38.262 -59.726 -73.721 -81.421 -90.825 -110.85 -144.11 -183.46 -215.08 -226.41 -213.98 -185.67 -155.92 -136.89 -131.43 -132.39 -128.77 -114.26 -92.54 -75.53 -75.784 -97.933 -134.69 -170 -187.32 -178.11 -145.71 -102.69 -63.984 -39.797 -32.095 -35.863 -43.532 -49.607 -53.084 -56.863 -65.141 -80.511 -102.36 -127.21 -150.63 -169.66 -184.2 -196.57 -208.96 -220.31 -224.62 -212.75 -177.67 -120.78 -55.212 -2.9597 14.491 -12.255 -73.188 -141.13 -183.83 -180.38 -132.79 -65.864 -14.452 -4.7945 -40.373 -100.46 -152.23 -169.42 -146.55 -100.73 -60.36 -48.028 -68.036 -105.64 -137.77 -147.81 -135.33 -114.76 -104.83 -115.72 -142.36 -167.73 -173.77 -152.73 -112.07 -70.113 -45.662 -48.046 -73.374 -108.48 -139.27 -158.03 -165.31 -166.38 -165.37 -161.62 -150.6 -128.4 -96 -60.213 -30.16 -11.955 -5.3553 -4.9986 -5.4979 -6.7887 -15.61 -41.483 -89.384 -153.96 -219.57 -266.97 -282.94 -267.1 -231.52 -193.29 -164.59 -146.87 -132.61 -113.46 -88.856 -68.775 -67.98 -95.169 -144.28 -194.49 -220.28 -206.1 -156.82 -96.761 -57.184 -58.732 -99.279 -154.45 -190.9 -184.8 -135.02 -63.372 -2.3148 22.703 5.8997 -37.988 -84.35 -113.81 -122.59 -122.21 -129.5 -153.64 -188.56 -215.63 -214.98 -178.55 -116.84 -54.922 -19.661 -25.381 -66.053 -118.59 -155.39 -159.13 -131.52 -91.333 -63.201 -63.77 -93.084 -135.69 -170.18 -181.1 -166.26 -135.86 -104.82 -84.035 -75.797 -75.698 -78.465 -82.922 -92.329 -110.12 -134.69 -157.73 -167.97 -158.14 -130.28 -95.288 -66.632 -52.135 -49.46 -48.558 -39.603 -21.089 -2.4079 1.2471 -21.288 -68.787 -126.18 -171.2 -185.41 -163.33 -114.7 -59.346 -17.89 -3.5286 -18.576 -56.205 -105.15 -154.34 -195.64 -224.54 -239.78 -242.69 -236.5 -225.21 -212.2 -199.26 -186.48 -173.33 -159.84 -146.86 -135.14 -123.95 -110.97 -93.855 -72.968 -52.728 -40.042 -40.019 -51.675 -67.081 -75.506 -70.607 -55.992 -44.772 -52.248 -85.645 -137.39 -186.86 -210.58 -195.11 -145.12 -81.459 -30.27 -9.558 -20.992 -51.28 -81.45 -97.761 -97.671 -88.055 -78.039 -71.882 -66.51 -54.626 -30.489 5.8266 48.25 87.991 117.53 132.7 132.34 116.77 87.161 46.318 -0.28541 -44.824 -79.53 -99.973 -106.95 -105.47 -101.27 -97.282 -92.362 -83.106 -67.259 -46.101 -24.092 -6.269 4.3975 7.5384 3.5418 -8.7968 -32.596 -70.172 -118.94 -169.25 -206.81 -219.21 -203.03 -166.82 -127.34 -100.92 -94.646 -103.11 -112.85 -111.77 -97.829 -81.07 -77.663 -99.239 -144.15 -196.23 -232.15 -233.38 -195.98 -132.47 -65.119 -14.49 10.047 12.664 5.56 -0.46011 -3.205 -9.6296 -29.593 -67.122 -115.14 -157.44 -177.17 -166.65 -132.36 -91.729 -63.266 -56.119 -65.504 -76.968 -76.808 -61.919 -42.53 -35.818 -54.354 -96.922 -147.91 -186 -196.76 -181.01 -153.56 -133.09 -129.95 -139.84 -147.78 -139.22 -111.1 -74.858 -49.504 -49.247 -74.053 -109.58 -136.53 -143.21 -132.74 -120.09 -121.03 -140.39 -167.65 -183.03 -170.19 -127.42 -69.988 -22.186 -3.7487 -18.933 -54.632 -88.368 -101.27 -88.621 -62.224 -43.832 -53.349 -98.062 -168.06 -239.8 -286.04 -287.56 -241.88 -164.91 -84.875 -30.67 -19.647 -50.339 -103.77 -152.95 -176.04 -166.36 -134.11 -98.969 -78.149 -76.702 -85.73 -88.941 -73.004 -34.996 17.501 73.037 124.69 174.35 230.26 299.97 384.03 474.99 562.43 640.3 711.45 786.34 876.81 989.25 1121.3 1263.7 1404.9 1535.8 1650 1743.1 1811.1 1850.8 1862.6 1853 1833.2 1815.4 1805.6 1801 1789.7 1756 1686.6 1574.5 1419.4 1226.5 1004.8 767.27 530.94 315.05 135.68 -0.76796 -101.34 -183.77 -267.44 -362.55 -464.04 -554.37 -613.97 -633.01 -617.3 -584.48 -553.25 -532.52 -517.52 -494.74 -452.11 -387.33 -309.3 -232.2 -167.13 -117.03 -77.901 -44.725 -17.042 -0.085218 -0.70393 -21.273 -56.069 -92.687 -117.55 -121.96 -105.34 -74.342 -39.247 -10.032 6.3257 7.1205 -5.6541 -25.65 -43.949 -52.723 -49.707 -40.75 -37.781 -51.935 -85.223 -126.24 -153.93 -148.61 -104.31 -34.486 33.271 71.405 67.192 29.119 -19.168 -53.488 -62.917 -54.071 -43.643 -44.858 -57.472 -68.262 -61.467 -31.69 10.039 41.576 43.096 9.7519 -44.779 -96.191 -123.69 -121.39 -100.08 -79.031 -73.646 -86.732 -108.19 -122.14 -116.23 -87.569 -42.769 6.2868 47.524 71.832 74.037 53.057 12.4 -39.406 -89.952 -126.55 -141.17 -133.91 -112.44 -87.424 -66.455 -50.64 -35.885 -17.897 2.8915 20.234 25.795 15.108 -8.5426 -35.268 -54.137 -59.446 -53.494 -44.146 -39.088 -40.832 -45.693 -47.003 -39.809 -23.616 -1.5626 22.665 47.245 71.846 94.984 111.82 115.13 99.699 67.496 29.473 1.7464 -2.5608 18.75 54.306 83.987 89.009 61.777 10.047 -46.862 -87.587 -98.76 -80.429 -44.556 -8.1386 15.018 19.7 9.7551 -5.7583 -18.102 -23.12 -22.371 -21.037 -24.111 -32.984 -44.225 -51.178 -47.541 -31.046 -5.2237 21.851 41.318 47.851 42.191 30.499 20.921 19.378 26.981 40.407 54.696 66.533 75.934 85.5 98.031 114.3 132.43 149.04 161.16 167.53 168.49 165.15 158.39 148.88 137.54 125.87 115.48 107.03 99.51 90.758 79.212 65.732 54.044 49.128 54.323 69.002 88.468 106.34 117.98 122.84 124.26 126.94 133.95 145.02 157.22 166.97 172.15 172.74 170.1 165.94 161.76 159.19 160.2 166.44 177.82 191.17 200.81 201.07 189.86 170.68 151.56 140.98 143.11 155.47 170.53 180.18 180.25 172.02 159.94 147.7 135.61 121.46 104.13 86.812 76.961 82.099 104.09 135.98 164.25 175.86 166.11 142.22 120.19 116.18 137.42 177.83 220.86 247.85 247.25 219.77 177.31 136.57 111.22 106.43 117.93 135.48 148.53 151.23 144.75 135.84 132.52 139.12 153.3 166.99 171.3 162.74 146.82 135.91 141.64 165.95 196.7 212.25 193.67 138.13 64.628 7.0597 -3.1433 44.773 132.96 223.1 276.77 276.14 232.44 176.89 139.71 130.69 133.71 118.88 64.158 -27.767 -128.58 -200.2 -217.24 -181.5 -119.59 -65.768 -41.587 -45.527 -58.482 -60.123 -44.185 -22.2 -13.775 -31.067 -68.863 -107.33 -125.24 -114.14 -83.346 -52.522 -37.346 -38.663 -42.835 -32.914 -2.5329 37.505 64.819 59.579 17.608 -46.331 -107.14 -143.99 -151.29 -139.27 -124.66 -118.49 -119.38 -116.43 -98.971 -65.751 -27.068 1.5586 9.6291 -1.2783 -18.385 -25.829 -14.588 12.16 41.394 58.408 55.371 35.014 7.645 -16.051 -31.548 -42.297 -56.04 -78.334 -107.61 -134.99 -149.1 -143 -119.1 -89.068 -68.457 -68.87 -91.888 -128.07 -161.63 -178.25 -171.81 -146.58 -113.9 -85.812 -69.352 -64.698 -67.417 -72.529 -77.173 -80.213 -79.897 -72.452 -53.854 -24.198 8.742 30.608 27.291 -5.7884 -58.041 -106.6 -127.57 -109.7 -62.003 -9.8412 19.052 10.474 -28.194 -73 -98.455 -93.138 -66.015 -39.649 -35.022 -57.957 -95.822 -126.2 -131.31 -108.63 -71.132 -37.876 -21.921 -23.736 -33.739 -41.082 -41.725 -40.093 -43.793 -56.098 -72.252 -82.449 -79.113 -62.791 -42.102 -27.675 -24.538 -28.606 -29.879 -20.089 0.7118 23.347 35.136 28.104 4.2958 -25.159 -46.328 -49.887 -35.161 -8.998 18.9 40.79 53.218 56.592 53.592 48.072 44.753 48.6 62.843 86.051 110.31 122.7 110.5 67.926 0.63211 -75.075 -138.45 -172.97 -173.05 -145.51 -105.41 -68.977 -47.143 -42.716 -51.539 -66.242 -80.238 -90.157 -96.096 -100.14 -104.21 -108.38 -110.4 -106.85 -95.304 -76.429 -54.65 -36.64 -28.109 -30.689 -40.889 -52.07 -58.427 -58.531 -56.044 -57.053 -65.724 -81.251 -98.201 -109.99 -112.99 -108.25 -99.701 -90.198 -78.582 -60.185 -30.686 9.3692 52.727 87.914 104.69 99.109 75.012 41.337 7.1057 -22.663 -47.964 -71.757 -96.691 -122.64 -146.06 -160.83 -160.06 -138.41 -95.051 -36.469 22.481 61.549 62.503 18.43 -60.226 -147.7 -213.73 -238.27 -221.71 -183.75 -150.97 -140.16 -148.09 -154.73 -138.11 -91.223 -29.252 18.209 25.499 -12.256 -75.122 -130.16 -151.45 -135.23 -100.41 -74.489 -74.984 -98.741 -125.97 -135.35 -119.08 -87.55 -60.84 -53.867 -66.079 -82.854 -87.074 -72.075 -46.601 -28.516 -32.278 -59.388 -98.338 -133.33 -154.63 -162.83 -164.37 -162.72 -153.07 -125.49 -74.595 -8.3861 51.422 79.318 60.51 0.63059 -76.073 -139.34 -168.6 -162.27 -135.45 -108.58 -94.667 -93.19 -93.457 -84.088 -61.778 -33.811 -13.414 -11.629 -30.973 -64.406 -99.477 -124.75 -134.86 -132.04 -123.97 -119.31 -123.26 -134.72 -146.42 -148.23 -132.28 -97.573 -51.425 -6.3981 25.965 41.031 42.725 39.512 37.097 32.894 16.634 -22.465 -86.337 -163.01 -230.12 -265.61 -259.46 -218.86 -163.67 -114.97 -84.228 -69.786 -62.138 -53.506 -44.468 -43.037 -57.351 -87.892 -125.29 -155.49 -168.45 -163.94 -150.29 -137.26 -128.52 -119.48 -101.97 -72.052 -34.97 -3.2949 10.4 1.0976 -26.227 -60.688 -92.702 -118.92 -141.6 -163.61 -183.65 -195.78 -193.6 -175.58 -147.12 -117.47 -94.127 -79.083 -70.236 -66.392 -71.277 -92.215 -133.37 -188.32 -238.32 -259.37 -234.85 -166.08 -73.659 11.947 65.152 76.413 53.564 13.642 -28.371 -66.208 -100.86 -133.78 -161.2 -174.67 -167.53 -141.93 -110.49 -90.165 -92.308 -115.4 -145.76 -165.73 -163.96 -141.18 -108.24 -78.708 -61.437 -57.857 -64.482 -77.368 -94.425 -114.05 -132.23 -141.7 -135.2 -110.93 -75.95 -44.312 -30.139 -39.847 -68.524 -102.82 -128.39 -137.06 -129.73 -114 -99.387 -93.392 -100.17 -120.63 -152 -186.35 -210.06 -207.21 -167.33 -93.821 -7.1334 61.662 85.308 55.254 -12.279 -83.894 -126.68 -125.71 -90.732 -48.179 -23.856 -27.585 -49.26 -67.903 -66.613 -43.02 -8.7588 20.269 34.847 36.562 32.977 28.866 21.283 2.686 -30.61 -72.151 -107.33 -123.13 -118.32 -105.64 -102.92 -118.79 -143.74 -154.32 -129.25 -66.704 10.014 64.12 68.076 22.618 -41.404 -81.028 -68.307 -9.1413 58.821 88.507 52.071 -42.134 -154.68 -238.47 -265.29 -239.08 -189.09 -149.08 -137.02 -148 -162.93 -165.01 -151.77 -134.79 -129.04 -140.49 -161.42 -176.01 -171.42 -145.75 -107.6 -68.529 -35.194 -7.3598 17.204 35.954 39.677 18.324 -29.229 -89.382 -137.96 -153.37 -130.73 -87.128 -53.138 -55.035 -98.418 -163.93 -218.12 -233 -201.99 -142.8 -85.831 -56.185 -60.615 -87.05 -115.53 -132.16 -136.6 -138.78 -148.54 -166.47 -182.92 -185.58 -169.69 -142.88 -120.57 -115.04 -125.99 -139.78 -138.53 -113.09 -70.849 -32.448 -19.016 -38.145 -78.143 -114.84 -126.86 -109.42 -77.483 -55.826 -62.335 -95.488 -134.44 -152.01 -132.46 -82.557 -28.618 -1.0932 -16.202 -66.005 -123.04 -156.56 -150.27 -111.14 -64.171 -37.367 -46.062 -85.938 -137.78 -179.87 -199.74 -198.7 -187.51 -177.57 -173.75 -173.07 -168.79 -156.15 -135.41 -110.8 -86.799 -65 -43.604 -19.202 11.171 49.522 97.902 159.23 236.3 328.89 431.29 532.57 620.87 689.64 742.2 791.43 854.08 942.64 1059.1 1193.8 1329.6 1448.9 1539.1 1595.9 1622.1 1625.7 1616.9 1605.6 1599.6 1601.6 1608.1 1609.8 1594 1549 1467.2 1346 1187.3 995.63 779.52 553.41 339.01 161.89 42.747 -13.44 -23.451 -21.635 -45.304 -116.58 -230.98 -360.14 -467.69 -529.11 -543.43 -529.71 -511.34 -499.27 -485.87 -453.8 -393.25 -314.66 -246.73 -219.79 -245.35 -306.09 -364.17 -383.4 -351.02 -284.68 -220.08 -187.47 -192.87 -216.37 -227.82 -208.7 -164.57 -119.86 -99.135 -108.69 -131.72 -140.4 -116.27 -64.146 -9.6762 17.849 5.2838 -35.724 -77.038 -93.135 -77.498 -45.105 -19.961 -17.159 -32.495 -46.832 -41.588 -13.807 20.244 35.63 15.997 -34.596 -93.427 -133.1 -138.14 -113.14 -77.787 -52.936 -47.681 -55.716 -62.263 -55.571 -34.607 -8.2033 12.473 21.712 21.533 17.476 12.084 1.7971 -20.017 -56.162 -100.32 -137.75 -152.13 -134.22 -86.88 -23.52 38.519 85.264 109.97 112.41 95.758 63.958 21.407 -26.074 -71.087 -106.55 -128.73 -139.05 -142.78 -145.15 -147.46 -145.99 -134.7 -109.84 -73.174 -31.675 6.0962 34.25 51.595 60.416 63.521 62.173 56.494 47.587 38.943 35.204 38.611 45.814 48.101 35.988 5.8329 -35.884 -74.036 -92.048 -80.953 -44.885 0.55065 36.334 49.966 41.574 22.845 9.6533 12.85 32.427 58.071 75.356 73.854 52.739 21.149 -6.5238 -17.788 -8.0954 16.998 44.378 59.356 52.383 23.486 -17.598 -55.734 -77.261 -76.199 -56.766 -30.862 -11.73 -7.0258 -14.932 -25.422 -26.024 -9.0128 23.804 61.273 87.999 91.782 69.687 29.823 -12.006 -39.143 -41.287 -18.787 17.904 53.422 74.978 78.644 71.244 66.628 77.855 109.18 152.28 189.14 200.87 177.69 125.01 61.717 11.513 -8.0553 7.0584 47.49 97.252 142.59 177.39 202.51 220.44 230.26 226.86 205.28 166.62 120.56 81.664 61.119 59.457 65.637 63.987 45.025 13.104 -14.643 -18.112 13.009 71.625 135.91 181.01 192.77 175.03 146.26 127.75 131 151.89 174.84 183.68 171.89 146.13 121.23 110.82 119.8 143.16 170.91 194.96 212.84 226.32 236.85 242.03 236.56 217.09 187.27 158.57 145.17 155.68 187.06 225.14 252.18 257.14 242.21 221.3 211.18 220.79 245.19 268.29 272.47 249.31 204.7 155.34 118.92 104.18 106.89 113.99 112.94 100.35 84.488 80.185 99.487 143.54 200.55 250.72 275.44 265.47 224.35 165.64 106.14 58.891 28.96 13.644 6.0043 -0.40463 -8.0271 -14.502 -14.68 -4.3174 16.485 41.943 62.324 68.21 55.259 26.909 -6.7443 -33.596 -45.342 -41.175 -27.233 -12.207 -1.9907 3.1318 6.9754 12.942 20.078 23.045 16.495 0.83826 -15.276 -18.712 -0.48445 36.035 73.47 87.927 62.371 -1.8201 -82.725 -147.63 -169.94 -143.69 -87.103 -32.545 -8.5882 -24.334 -65.051 -101.46 -107.1 -73.637 -15.716 37.044 55.761 26.916 -41.623 -125.36 -195.12 -229.43 -221.74 -180.24 -122.21 -66.532 -27.719 -12.766 -20.777 -44.413 -72.609 -94.208 -101.87 -95.028 -80.254 -68.388 -69.157 -85.802 -112.6 -136.95 -145.29 -129.95 -93.266 -46.657 -5.0755 20.276 27.004 21.625 14.675 13.664 17.948 18.679 4.1294 -32.435 -86.851 -143.85 -183.25 -189.75 -160.99 -109.71 -58.143 -27.645 -28.739 -56.758 -95.221 -124.87 -133.38 -120.69 -97.537 -78.489 -73.736 -83.861 -99.993 -108.68 -98.638 -66.042 -16.357 37.697 80.789 100.38 91.015 56.124 6.6237 -43.295 -81.65 -103.03 -109.68 -108.57 -106.16 -103.87 -97.257 -79.659 -47.867 -5.9616 35.735 66.325 80.939 83.558 83.597 88.186 95.485 94.211 70.652 19.069 -51.485 -119.22 -160.21 -161.41 -127.9 -79.582 -39.312 -20.013 -19.019 -22.945 -19.286 -6.4066 5.1335 0.80881 -26.031 -67.343 -103.86 -116.9 -100.7 -66.642 -36.331 -27.743 -43.698 -70.294 -86.399 -77.938 -47.512 -13.07 3.4637 -9.8679 -47.499 -89.809 -115.08 -112.17 -86.039 -53.262 -30.917 -26.282 -33.513 -38.722 -29.564 -3.0918 32.669 63.668 77.648 70.009 44.781 11.147 -21.62 -47.648 -64.983 -73.956 -75.347 -69.827 -58.679 -44.631 -31.557 -22.839 -19.434 -19.142 -17.907 -12.58 -3.4774 4.9821 6.184 -5.1805 -29.996 -63.793 -98.535 -126.05 -141.15 -142.81 -133.12 -115.14 -91.46 -64.265 -36.739 -14.063 -2.6286 -7.2673 -28.038 -58.863 -89.475 -110.05 -115.93 -109.58 -98.288 -89.248 -85.062 -82.855 -77.511 -66.635 -53.471 -45.292 -48.04 -60.936 -75.223 -78.612 -63.043 -30.763 5.563 29.234 28.639 3.4527 -35.887 -74.788 -102.64 -117.16 -122.61 -123.93 -121.69 -111.81 -90.308 -59.083 -28.092 -11.425 -19.504 -52.537 -99.765 -145.17 -175.95 -188.25 -186.89 -179.96 -172.61 -164.54 -152.45 -134.77 -114.54 -97.908 -89.375 -87.962 -87.654 -82.311 -71.439 -62.104 -64.83 -85.792 -120.67 -154.91 -170.9 -157.79 -117.81 -64.964 -17.12 13.342 24.518 23.078 17.63 12.386 5.2983 -8.7616 -32.789 -64.421 -96.681 -121.49 -132.86 -127.76 -104.82 -63.57 -6.0331 59.972 118.85 149.98 135.6 70.356 -33.262 -147.84 -241.8 -292.71 -296.04 -264.74 -220.71 -183.27 -161.35 -152.85 -149.88 -145.47 -137.24 -126.64 -115.72 -104.71 -92.552 -79.581 -69.692 -69.636 -85.335 -117.46 -159.29 -198.5 -222.1 -221.83 -197.34 -155.88 -109.1 -68.636 -42.341 -32.126 -33.862 -39.34 -39.898 -30.64 -13.46 3.044 7.4879 -7.9985 -42.457 -85.274 -121.09 -138.13 -134.94 -121.07 -110.49 -111.56 -119.82 -119.01 -90.666 -27.179 59.633 140.27 179.79 154.61 64.869 -64.094 -192.19 -281.47 -311.15 -283.89 -221.25 -151.71 -97.817 -68.424 -58.867 -57.642 -55.189 -49.843 -47.928 -58.336 -84.983 -121.85 -154.03 -164.93 -145.81 -102.22 -52.695 -19.684 -17.36 -43.464 -80.602 -106.79 -109.14 -91.954 -73.787 -74.687 -101.77 -142.78 -172.55 -168.91 -127.77 -67.403 -18.207 -4.1685 -27.74 -68.114 -94.236 -84.273 -38.982 19.473 62.085 71.013 49.239 16.127 -7.1085 -11.429 -3.8876 0.47466 -8.0395 -25.526 -37.482 -30.662 -4.6366 25.981 40.822 28.113 -6.3721 -42.574 -59.713 -50.676 -26.941 -10.368 -17.592 -48.104 -84.583 -105.29 -99.634 -75.752 -54.472 -54.038 -76.571 -106.2 -120.46 -106.92 -72.983 -41.453 -34.42 -56.637 -90.29 -105.54 -80.368 -16.698 58.205 106.37 100.85 40.964 -47.851 -128.84 -173.51 -174.28 -143.85 -103.99 -72.381 -55.74 -51.808 -56.151 -67.288 -86.307 -112.43 -139.5 -157.39 -157.97 -141.18 -116.03 -95.317 -87.497 -91.765 -99.978 -103.98 -102.51 -102.17 -111.29 -131.29 -152.7 -159.76 -141.32 -100.63 -56.468 -33.499 -47.534 -95.061 -154.26 -197.3 -206.23 -182.51 -144.58 -115.47 -109.19 -124.36 -148.23 -166.94 -174.15 -172.26 -166.72 -159.03 -144.88 -119.04 -83.018 -48.351 -31.62 -43.539 -79.767 -120.84 -142.72 -131.86 -94.8 -55.306 -40.213 -62.684 -113.78 -167.85 -198.28 -193.36 -162.1 -126.72 -107.4 -109.39 -120.97 -122.69 -101.28 -58.847 -11.852 18.577 18.157 -14.311 -68.533 -129.25 -182.38 -217.36 -226.44 -204.4 -151.2 -76.247 0.27579 52.751 61.704 25.533 -35.526 -87.487 -99.671 -61.322 12.385 89.212 138.88 151.13 142.05 145.2 192.76 298.23 449.99 618.7 772.89 893.39 979.17 1043.3 1103.2 1172.1 1255.2 1350.6 1451.8 1550.1 1634.8 1694.8 1722.2 1717.5 1692.5 1668 1665 1694.5 1748.9 1803.1 1823.4 1780.6 1661.6 1473.1 1237.4 983.05 735.55 511.86 319.31 157.53 21.421 -95.95 -200.62 -295.01 -376.22 -436.69 -468.14 -467.49 -441.49 -406.61 -382.9 -384.45 -411.44 -449 -474.17 -467.63 -423.92 -354.17 -279.88 -221.18 -186.46 -169.07 -152.9 -123.1 -75.893 -21.662 20.158 31.443 5.2922 -49.68 -112.71 -159.95 -174.69 -153.93 -108.59 -57.751 -19.936 -5.463 -13.109 -32.181 -48.557 -51.616 -38.756 -15.609 7.7055 21.972 23.003 12.511 -4.203 -21.881 -37.865 -52.165 -65.506 -77.143 -84.32 -83.867 -74.761 -59.667 -44.145 -33.889 -31.817 -36.973 -45.915 -55.439 -64.562 -74.281 -85.403 -96.305 -102.67 -99.796 -85.991 -64.548 -42.487 -26.527 -18.82 -15.457 -9.0175 6.2299 29.802 54.181 68.389 63.834 38.877 -0.47268 -43.775 -80.947 -105.65 -115.79 -111.85 -95.32 -68.686 -36.843 -7.9255 8.3338 4.787 -18.658 -53.466 -85.61 -102.24 -98.201 -78.326 -54.083 -36.428 -29.343 -28.028 -22.735 -5.6578 23.551 57.013 82.842 91.473 80.218 53.602 19.936 -13.232 -41.935 -65.627 -84.983 -99.694 -107.81 -106.75 -94.804 -72.096 -40.438 -2.835 36.771 73.435 101.52 116.02 114.73 99.767 77.203 54.209 35.342 20.378 5.5297 -12.436 -31.933 -45.505 -43.467 -20.472 19.242 61.957 90.847 95.423 78.39 55.287 46.392 65.107 109.4 161.4 195.78 192.35 146.44 71.454 -7.2709 -63.947 -83.285 -65.851 -25.925 16.391 44.699 53.143 47.855 42.787 52.062 82.297 128.37 174.73 201.87 195.34 152.92 86.546 17.588 -32.175 -49.591 -34.657 1.3732 42.729 76.626 97.538 106.66 108.11 105.03 98.414 88.581 77.485 69.285 68.367 76.261 90.104 104.26 114.34 120.69 128.72 145.22 173.09 207.98 239.34 255.46 249.39 222.09 181.24 137.01 97.964 69.593 55.5 59.065 83.097 126.98 183.45 238.36 275.09 282.03 259.04 218.33 178.86 156.87 158.18 176.54 198.69 212.78 214.62 208.44 202.26 201.67 206.29 210.96 210.22 202.57 191.44 182.36 178.87 180.07 181.66 179.56 173.24 166.39 164.36 170.33 182.72 195.96 203.8 203.37 197.18 191.9 194.69 209.01 232.18 255.96 269.76 265.06 239.27 197.29 150.13 110.99 90.242 91.483 110.35 136.8 159.7 171.42 170.11 158.68 141.7 122.46 102.24 82.053 64.779 55.42 58.321 72.901 91.23 100.22 88.345 53.305 5.5918 -35.282 -50.707 -33.702 6.0669 46.488 64.49 48.319 3.4619 -51.167 -94.275 -113.68 -111.46 -100.07 -92.712 -94.176 -98.295 -93.092 -70.032 -31.137 10.685 38.326 40.027 15.994 -21.742 -55.911 -73.048 -69.87 -53.775 -37.778 -33.157 -43.944 -65.872 -89.681 -106.43 -111.71 -106.83 -96.831 -87.052 -80.424 -76.866 -74.781 -73.295 -73.545 -78.083 -88.785 -104.74 -121.73 -133.86 -136.59 -129.29 -115.63 -101.48 -91.602 -87.171 -85.773 -83.83 -79.736 -75.512 -75.733 -84.396 -101.82 -123.71 -143.06 -153.69 -153.03 -142.56 -125.81 -105.74 -83.362 -58.753 -33.249 -11 1.8425 0.14746 -16.771 -43.665 -71.022 -89.118 -92.255 -80.914 -60.902 -40.336 -26.23 -22.282 -28.367 -41.32 -56.288 -68.234 -73.524 -71.374 -64.547 -58.531 -59.052 -68.92 -86.098 -104.5 -117.43 -121.67 -119.48 -116.72 -118.3 -123.81 -126.78 -118.62 -94.899 -59.77 -25.078 -4.1044 -3.6751 -19.793 -39.956 -50.992 -47.461 -35.097 -26.855 -33.967 -57.795 -87.856 -107.5 -103.78 -75.452 -34.176 1.6496 16.577 5.6019 -24.539 -60.294 -88.894 -104.06 -107.02 -103.36 -98.305 -93.648 -87.687 -77.455 -61.371 -40.639 -18.874 -0.55379 10.719 13.447 8.7133 -0.10964 -8.47 -12.472 -10.945 -6.7328 -6.1175 -16.063 -40.255 -76.006 -114.03 -141.75 -148.73 -131.48 -94.994 -50.146 -8.3888 23.195 43.829 57.095 66.599 72.137 68.862 50.1 12.21 -41.426 -99.822 -147.92 -172.72 -168.95 -141.39 -102.64 -67.306 -45.598 -39.558 -43.647 -49.193 -50.006 -45.952 -42.512 -46.789 -62.515 -87.149 -112.75 -129.98 -132.62 -120.03 -96.508 -68.489 -41.968 -21.514 -10.74 -12.567 -27.951 -53.504 -80.286 -96.136 -91.725 -67.268 -35.145 -15.211 -24.062 -64.074 -119.44 -162.91 -170.5 -135.64 -74.025 -15.297 13.785 4.5448 -29.594 -62.846 -74.223 -60.918 -39.15 -32.056 -52.915 -95.105 -135.69 -150.23 -128.95 -83.15 -37.963 -16.176 -24.323 -50.135 -72.614 -77.295 -65.954 -54.222 -59.279 -86.752 -126.29 -158.87 -170.4 -161.49 -146.31 -141.14 -151.08 -164.9 -162.43 -129.79 -71.871 -12.659 17.744 1.6228 -54.464 -122.49 -169.1 -174.98 -145.29 -104.75 -81.021 -87.088 -113.98 -137.71 -135.47 -100.2 -44.633 7.1333 34.195 30.088 4.0335 -27.478 -52.309 -69.686 -88.548 -119.21 -164.49 -216.07 -258.23 -275.94 -262.26 -221.15 -164.81 -108.18 -63.694 -38.49 -33.922 -46.434 -68.946 -92.824 -110.68 -119.45 -121.98 -125.58 -137.34 -158.47 -181.53 -193 -180.58 -141.18 -84.523 -29.403 5.6012 11.647 -6.4576 -34.298 -57.173 -68.645 -72.941 -80.042 -97.222 -123 -147.57 -159.2 -151.92 -129.18 -101.37 -79.189 -67.859 -66.015 -69.291 -75.203 -85.13 -101.85 -124.87 -147.94 -161.26 -157.56 -137.37 -109.32 -84.526 -69.06 -59.923 -48.088 -26.686 1.6661 24.369 26.423 1.2667 -43.014 -87.29 -113.27 -115.82 -106.85 -107.29 -131.83 -176.85 -220.37 -235.14 -206.7 -144.64 -78.774 -42.029 -50.761 -95.016 -145.18 -170.65 -158.46 -119.99 -81.901 -67.877 -83.532 -114.11 -135.8 -132.32 -105.39 -72.463 -53.957 -59.458 -82.281 -105.63 -115.28 -109.46 -99.03 -98.276 -113.39 -137.16 -153.75 -150.08 -125.58 -93.34 -71.573 -71.281 -88.664 -107.46 -109.71 -87.818 -49.872 -15.02 -2.0818 -18.861 -58.728 -105.96 -145.63 -171.45 -186.74 -199.12 -213.1 -226.16 -230.65 -219.63 -192.3 -155.08 -118.03 -89.175 -71.09 -61.561 -57.492 -58.59 -67.848 -88.377 -119.09 -152.78 -178.54 -187.3 -176.86 -152.87 -124.92 -100.29 -79.851 -58.957 -33.055 -3.7694 19.289 23.207 0.57141 -43.402 -90.918 -120.13 -117.78 -88.315 -52.9 -38.046 -59.692 -112.36 -170.43 -201.63 -185.32 -124.89 -46.927 12.631 27.244 -7.3186 -72.941 -141.07 -188.67 -208.57 -208.8 -202.95 -199.02 -194.5 -180.28 -149.84 -106.46 -63.025 -34.543 -28.6 -40.665 -57.556 -66.751 -65.12 -61.087 -68.706 -97.576 -145.27 -197.17 -233.77 -240.84 -216.36 -170.58 -119.99 -79.281 -55.939 -49.625 -55.387 -67.797 -83.492 -101.34 -121.11 -142.13 -162.51 -179.12 -187.86 -184.42 -165.88 -132.87 -91.351 -52.215 -27.807 -26.488 -48.002 -82.764 -116.17 -135.93 -138.22 -128.97 -119.41 -118.75 -128.49 -141.95 -148.87 -141.77 -120.09 -89.721 -59.034 -34.639 -19.48 -13.768 -16.875 -28.005 -45.151 -63.955 -78.609 -85.215 -85.365 -86.532 -97.619 -121.73 -151.24 -169.7 -160.93 -120.39 -61.02 -8.6472 11.575 -9.999 -60.897 -112.89 -138.03 -124.56 -83.119 -39.208 -17.288 -26.494 -56.808 -87.261 -99.918 -90.181 -67.154 -45.058 -32.642 -28.225 -23.278 -11.043 6.7658 20.26 18.223 -3.8257 -40.395 -79.766 -111.56 -132.23 -144.47 -151.59 -151.83 -137.89 -102.73 -47.495 14.748 63.323 80.392 61.059 16.315 -33.409 -70.096 -87.815 -94.143 -102.84 -123 -152 -176.74 -182.04 -160.43 -117.23 -67.962 -30.302 -15.629 -24.872 -50.11 -79.951 -105.08 -121.28 -129.23 -132.4 -134.52 -137.71 -141.65 -143.76 -140.51 -129.52 -111.75 -92.073 -77.31 -72.25 -75.889 -80.881 -77.474 -60.239 -33.324 -10.129 -6.4115 -30.278 -75.153 -120.73 -142.29 -123.54 -65.78 11.834 80.972 116.71 107.33 56.912 -18.89 -100.34 -169.99 -216.04 -233.27 -223.35 -194.84 -161.72 -139.04 -136.31 -151.86 -172.63 -180.71 -164.15 -125.38 -81.362 -54.518 -59.456 -93.911 -140.06 -175.64 -187.76 -180.18 -169.18 -170.97 -189.16 -211.24 -216.43 -189.9 -133.41 -65.341 -9.9367 16.939 16.071 2.0263 -8.3722 -7.9993 -3.6545 -10.012 -37.884 -85.102 -136.26 -171.37 -177.5 -155.91 -120.32 -88.223 -71.113 -69.751 -76.676 -83.299 -86.356 -89.574 -100.01 -122.01 -152.93 -183.21 -200.52 -195.44 -165.51 -115.89 -56.603 2.0919 53.883 98.451 140.47 186.08 238.73 296.6 353.59 403.55 445.65 487.21 541.43 620.63 728.48 856.54 987.83 1106.1 1205.2 1292.1 1381.2 1482.8 1593.4 1694.6 1762.8 1783.1 1760.3 1718.1 1687.2 1688.5 1721.6 1764.6 1785.5 1757.2 1667.9 1523.1 1338.6 1131.7 916.97 704.91 504.75 324.8 170.07 39.131 -75.983 -185.02 -292.15 -391.28 -468.18 -509.13 -510.47 -482.46 -443.85 -410.46 -385.32 -357.74 -312.66 -244.38 -165.23 -102.31 -83.168 -118.7 -193.96 -273.23 -317.02 -301.59 -230.14 -129.96 -37.726 18.123 28.802 5.3433 -30.647 -59.257 -70.849 -67.597 -59.047 -55.517 -63.121 -82.191 -108.57 -136.12 -158.93 -172.62 -174.89 -165.54 -146.21 -119.95 -90.542 -61.966 -37.79 -20.581 -11.22 -8.4535 -9.1916 -9.9526 -9.0622 -8.3325 -12.716 -27.385 -53.481 -85.224 -110.9 -118.1 -100.81 -63.932 -22.037 7.7159 14.744 0.76743 -21.6 -36.753 -35.697 -21.355 -6.2663 -4.2319 -21.35 -52.154 -83.107 -100.81 -99.366 -82.207 -57.766 -32.644 -7.5097 21.317 55.988 91.743 116.66 117.68 89.26 38.998 -14.34 -49.834 -55.523 -34.953 -5.0801 13.357 7.3831 -21.441 -58.715 -86.01 -91.339 -75.256 -49.432 -29.155 -24.551 -35.589 -53.3 -65.826 -65.335 -51.802 -31.94 -14.542 -5.3384 -4.3139 -6.5915 -5.801 2.3369 18.168 38.569 58.866 74.752 83.233 82.576 71.999 51.807 24.047 -6.933 -34.843 -53.036 -56.804 -45.291 -22.035 6.1663 31.499 47.481 50.509 40.304 19.478 -7.3078 -34.256 -55.387 -65.579 -61.67 -43.362 -13.572 22.017 56.205 82.113 95.225 95.138 86.344 77.333 77.674 93.611 123.88 158.16 179.92 173.44 132.23 64.326 -9.1494 -62.395 -76.746 -49.615 4.5334 61.989 102.1 117.03 113.36 105.19 103.53 109.05 113.04 105.41 84.037 58.631 45.961 59.41 99.653 152.83 197.64 217.08 207.56 180.03 152.95 141.83 151.52 175.3 199.76 211.76 203.51 173.99 128.1 75.207 27.875 -0.34787 0.95671 33.791 88.414 145.36 183.5 190.71 170.84 142.34 128.3 143.61 186.87 241.71 286.47 305.65 296.18 265.54 224.71 182.01 142.09 109.55 92.296 99.856 136.6 194.79 254.12 290.3 288.5 252.78 204.22 168.01 157.54 166.45 174.53 163.71 132.86 100.48 92.62 123.82 184.63 245 272.2 251.72 196.96 141.26 117.28 137.51 188.4 241.05 270.26 268.72 247.43 223.92 208.12 196.75 179.41 150.71 117.78 96.768 100.62 127.85 161.5 180.07 172.71 147.39 125.4 125.74 150.42 181.92 195.16 175.77 131.6 88.7 74.089 97.037 142.14 179.2 183.27 151 102.05 64.741 56.168 70.828 85.562 77.227 40.454 -7.1199 -36.036 -25.047 23.678 84.614 124.29 121.92 81.74 29.427 -4.7681 -4.8448 22.064 51.81 59.62 35.836 -8.7877 -50.824 -69.244 -57.958 -28.276 -0.53067 9.1874 -1.3613 -20.288 -30.251 -20.268 6.7447 35.231 46.114 28.238 -14.636 -65.311 -102.12 -110.12 -88.163 -48.039 -6.7323 23.185 39.157 47.205 55.066 65.031 71.585 65.435 40.893 1.0834 -43.023 -79.256 -101.74 -113.59 -122.66 -133.48 -142.03 -138.02 -114 -74.453 -37.101 -23.402 -43.314 -84.976 -118.14 -111.62 -54.891 30.653 99.872 108.65 40.88 -79.505 -200.01 -268.56 -262.4 -199.11 -122.99 -76.066 -72.443 -92.431 -99.376 -67.185 0.24891 70.613 104.28 80.467 10.957 -67.277 -115.05 -114.05 -75.237 -28.446 -1.5644 -3.8113 -23.617 -40.684 -42.206 -31.343 -22.716 -29.526 -52.684 -80.102 -96.148 -93.496 -78.017 -62.966 -57.168 -56.727 -47.337 -16.219 34.966 86.404 109.85 86.465 21.199 -56.485 -107.2 -103.28 -44.497 41.774 115.7 146.28 126.28 72.828 15.103 -22.398 -30.761 -16.655 6.288 27.459 43.913 57.839 70.471 78.147 73.876 53.086 18.755 -18.504 -46.039 -56.76 -53.335 -45.834 -44.273 -51.234 -59.818 -58.585 -40.169 -7.5251 26.849 48.61 51.153 40.397 30.975 35.736 55.284 74.848 71.495 28.154 -53.785 -151.34 -228.96 -255.39 -219.21 -134.66 -34.689 44.617 79.903 68.682 26.72 -22.487 -59.662 -77.085 -78.813 -75.365 -76.766 -87.52 -105.13 -121.79 -127.89 -116.05 -84.471 -38.548 10.265 48.678 67.442 65.976 52.694 40.045 36.663 41.442 43.845 30.997 -2.6166 -49.436 -91.667 -111.65 -103.29 -76.59 -51.664 -45.491 -60.312 -81.837 -89.055 -69.274 -27.907 14.324 35.452 28.123 5.8777 -5.3216 14.698 64.633 119.74 145.85 120.79 49.087 -39.708 -108.42 -133.96 -119.55 -90.022 -74.366 -87.487 -123.15 -161.49 -184.37 -187.23 -179.42 -174.16 -176.87 -180.94 -174.18 -150.09 -114.86 -83.823 -69.798 -72.18 -75.635 -60.376 -17.197 43.519 95.873 113.56 86.188 25.925 -39.749 -84.117 -95.333 -79.829 -54.109 -31.964 -16.506 -1.9424 17.651 40.318 55.551 51.39 23.576 -20.475 -65.961 -99.92 -118.42 -126.59 -132.14 -137.97 -139.97 -131.56 -110.76 -83.544 -60.077 -46.68 -40.23 -30.358 -8.67 21.895 45.558 42.76 4.4145 -58.804 -119.84 -150.46 -138.72 -96.93 -54.011 -37.017 -53.922 -89.26 -115.41 -111.59 -77.561 -32.857 -2.7569 -1.3063 -23.324 -50.469 -66.133 -67.774 -67.553 -81.126 -113.32 -151.8 -173.99 -162.6 -118.72 -62.916 -23.207 -17.961 -45.41 -86.567 -119.01 -131.6 -130.07 -130.25 -144.42 -171.08 -195.1 -198.03 -170.66 -119.26 -61.512 -15.541 9.8527 17.441 15.712 10.231 -0.98049 -24.766 -65.333 -117.95 -168.81 -201.43 -205.27 -180.96 -139.09 -94.144 -57.783 -35.598 -28.071 -33.601 -50.511 -76.633 -107.58 -136.05 -153.52 -153.67 -135.25 -102.7 -64.295 -29.368 -6.0681 -0.081495 -13.528 -43.454 -80.702 -111.11 -120.34 -101.11 -58.829 -11.245 19.31 17.661 -15.389 -63.107 -102.47 -117.69 -108.99 -90.671 -79.696 -82.788 -91.147 -86.97 -57.526 -6.8151 43.944 68.295 51.428 0.56585 -58.65 -97.89 -103.83 -86.045 -69.768 -78.327 -116.9 -168.38 -203.92 -201.23 -158.57 -95.884 -42.708 -21.332 -35.569 -71.377 -107.39 -127.62 -128.35 -116.26 -100.92 -87.766 -76.293 -63.243 -47.319 -31.325 -20.463 -18.752 -26.705 -41.882 -61.25 -82.902 -105.67 -127.49 -144.74 -154.07 -155.57 -154.31 -157.79 -170.22 -187.26 -196.19 -182.64 -140.65 -79.342 -20.814 10.667 2.2882 -39.39 -91.532 -127.64 -132.11 -107.86 -72.799 -47.92 -45.016 -61.482 -84.638 -101.54 -107.2 -105.99 -106.37 -113.64 -126.15 -137.48 -142.21 -140.58 -138.42 -142.63 -155.75 -173.71 -188.36 -192.75 -185.38 -170.69 -155.72 -145.54 -140.57 -136.77 -128.28 -110.35 -81.462 -44.394 -6.408 21.625 28.087 5.6747 -43.07 -103.32 -151.84 -167.17 -141.37 -86.13 -28.207 4.9214 1.0699 -29.107 -58.853 -63.052 -35.877 3.716 23.35 -1.0409 -67.233 -145.04 -193.26 -185 -125.15 -48.055 3.521 4.945 -35.516 -83.217 -100.55 -71.76 -13.02 38.541 49.01 8.9807 -61.694 -127.87 -161.63 -158.18 -135.39 -118.67 -122.62 -141.93 -156.85 -148.12 -110.31 -54.821 -1.5668 33.626 46.895 44.899 36.802 26.777 12.74 -8.6296 -35.705 -60.335 -72.562 -67.872 -50.982 -32.823 -22.851 -22.691 -26.128 -25.477 -19.087 -13.644 -18.93 -38.882 -66.264 -86.056 -86.094 -67.457 -46.311 -44.494 -74.344 -128.09 -179.89 -200.34 -174.58 -112.25 -42.396 3.6594 10.547 -13.372 -43.416 -55.895 -43.819 -20.902 -11.722 -34.853 -89.987 -157.03 -207.25 -219.32 -190.51 -137.13 -85.006 -56.022 -58.456 -85.264 -120 -146.16 -154.97 -148.21 -135.59 -128.38 -132.86 -146.56 -159.53 -160.23 -143.27 -114.37 -88.842 -83.334 -104.73 -143.23 -175.05 -174.92 -131.84 -58.491 12.761 46.292 23.117 -47.835 -134.4 -199.34 -220.97 -203.22 -169.43 -144.44 -137.43 -137.31 -123.31 -82.984 -24.431 26.373 41.796 11.231 -50.906 -113.78 -149.85 -152.33 -138.44 -136.16 -163.35 -213.68 -258.93 -266.5 -220.67 -133.75 -40.043 23.309 36.409 5.3826 -44.437 -85.339 -102.87 -101.05 -95.567 -100.91 -120.57 -145.96 -163.46 -163.75 -147.22 -122.53 -100.42 -87.519 -83.95 -85.519 -88.152 -91.258 -97.975 -112.5 -136.34 -165.72 -191.5 -201.73 -186.22 -141.24 -72.508 5.4845 74.303 119.07 135.09 129.83 118.49 115.3 125.49 143.4 158.25 164.23 168 187.77 243.57 344.31 480.34 627.22 759.18 864.23 950.99 1042.3 1159 1304.6 1459.3 1589 1663 1670.3 1624.9 1558.3 1504.2 1484.5 1503.6 1551.3 1610.1 1661.2 1686.1 1666.9 1588 1440.9 1230.6 977.62 713.63 470.22 267.65 109.17 -15.882 -122.67 -221.14 -311.66 -387.41 -440.73 -468.37 -472.78 -459.95 -436.71 -409.94 -387.38 -377.62 -387.13 -415.3 -451.19 -475.88 -470.83 -428.11 -355.89 -274.79 -206.62 -162.31 -136.92 -115.26 -84.227 -43.495 -6.8555 6.9945 -12.01 -56.867 -106.33 -137.47 -139.73 -120.99 -101.72 -101.02 -123.98 -158.51 -183.34 -181.57 -150.6 -102.58 -55.786 -23.464 -7.6829 -1.4821 3.2427 8.4545 8.5514 -4.5527 -33.922 -73.271 -108.96 -126.96 -120.34 -92.597 -55.35 -22.198 -2.5801 1.3047 -6.3148 -18.176 -27.855 -32.499 -33.73 -36.691 -47.523 -69.987 -102.56 -137.74 -164.55 -173.73 -162.76 -137.55 -109.14 -86.902 -72.628 -59.639 -38.093 -3.2717 38.888 73.334 84.169 64.517 21.4 -27.811 -65.08 -81.045 -77.853 -64.211 -47.037 -26.564 1.1549 36.458 69.805 83.358 61.095 1.2331 -78.126 -145.56 -172.5 -149.38 -91.464 -30.26 4.4492 0.74315 -30.804 -66.057 -83.183 -74.978 -50.497 -26.535 -16.05 -21.54 -36.683 -53.197 -66.648 -76.986 -84.678 -87.122 -79.431 -59.301 -31.469 -6.8583 4.2844 0.55619 -7.9501 -5.8953 15.575 50.039 77.302 75.642 37.122 -24.788 -81.488 -106.15 -90.261 -48.563 -8.8907 6.2936 -5.8824 -28.151 -36.001 -14.517 32.616 87.484 131.3 156.15 166.45 170.21 168.18 150.85 106.65 35.168 -45.864 -107.25 -125.75 -100.24 -54.2 -20.771 -19.758 -42.548 -56.718 -28.727 50.102 152.55 228.44 234.53 162.27 45.099 -60.077 -105.74 -80.154 -10.999 54.93 81.83 65.11 29.739 9.7657 24.136 65.085 105.65 119.49 98.677 57.506 21.346 9.3062 23.062 48.526 67.648 71.062 62.945 56.016 61.682 82.959 114.49 148.12 178.54 204.61 226.17 240.31 241.17 224.09 190.72 150.52 116.63 98.964 99.436 112.97 133.34 158.83 192.84 238.57 292.1 339.91 364.43 354.45 313.55 259.81 215.87 195.49 195.41 198.34 185.17 148.43 97.804 54.213 36.704 51.204 88.613 132.84 172.41 206.85 243.49 287.26 331.71 358.71 348.02 290.78 197.67 95.858 16.11 -22.03 -18.023 13.043 51.761 85.637 113.16 139.24 166.63 190.53 200.54 188.43 155.7 115.05 83.997 74.991 88.328 112.77 133.13 139.63 132.75 120.85 112.96 112.27 115.05 115.21 110.39 104.38 103.43 109.19 114.13 104.29 68.952 11.286 -48.031 -78.733 -57.517 16.113 115.06 195.59 219.26 173.89 81.027 -15.198 -72.002 -71.214 -28.29 18.116 29.712 -8.8173 -81.462 -151.3 -182.76 -162 -103.29 -38.522 2.7052 9.5344 -6.9276 -24.367 -25.801 -10.591 6.8668 8.8788 -12.239 -48.677 -82.965 -100.57 -100.03 -93.464 -97.147 -118.95 -151.65 -176.97 -177.62 -149.21 -103.9 -63.289 -45.531 -55.087 -81.722 -108.65 -123.67 -125.52 -121.52 -119 -117.58 -108.51 -81.875 -36.595 14.419 48.664 46.155 1.9459 -69.102 -138.86 -180.4 -182.01 -152.67 -115.97 -96.402 -106.04 -138.96 -175.98 -196 -187.33 -152.69 -106.01 -63.783 -36.351 -23.824 -18.333 -10.536 3.7565 20.644 30.43 23.708 -2.2602 -40.566 -77.03 -97.035 -93.337 -70.548 -43.371 -28.988 -37.407 -65.206 -96.726 -112.76 -102.26 -70.322 -37.095 -27.474 -56.671 -119.93 -192.77 -242.39 -244.39 -195.67 -116.15 -38.344 9.382 16.457 -6.7135 -37.211 -54.122 -50.337 -34.979 -25.77 -36.717 -68.974 -110.32 -143.06 -154.92 -146.03 -127.66 -114.07 -112.67 -119.09 -119.96 -101.78 -60.193 -3.8693 49.256 81.238 83.349 60.026 25.488 -4.691 -22.02 -28.764 -35.061 -51.528 -81.869 -119.78 -151.85 -164.76 -152.71 -121.11 -84.357 -58.997 -55.629 -73.697 -101.83 -123.65 -126.19 -106.81 -74.915 -47.353 -39.433 -55.991 -87.261 -112.27 -108.75 -64.956 12.508 99.493 163.86 179.64 138.79 54.855 -43.527 -125.66 -171.83 -179.96 -163.16 -140.37 -125.89 -123.09 -125.13 -121.01 -102.7 -69.371 -27.027 15.288 49.679 71.695 80.185 75.879 60.327 35.896 6.2846 -23.566 -48.723 -66.104 -75.654 -79.912 -82.163 -84.397 -86.443 -86.779 -84.333 -79.936 -76.439 -77.479 -85.719 -101.52 -122.49 -143.77 -158.87 -161 -145.17 -110.82 -63.864 -16.364 17.105 25.598 7.4856 -27.874 -64.276 -87.001 -90.753 -82.276 -75.7 -83.251 -107.15 -138.03 -161.11 -165.97 -153.53 -135.36 -125.62 -131.29 -147.25 -159.73 -155.82 -132.42 -98.72 -70.627 -61.232 -73.848 -101.89 -134.72 -164.25 -187.41 -203 -206.95 -191.15 -148.37 -80.408 -2.5743 60.328 85.962 67.114 16.311 -41.681 -85.228 -108.89 -124.91 -151.6 -196.65 -247.31 -275.7 -256.65 -186.44 -89.251 -5.6346 30.488 11.647 -39.562 -85.654 -98.297 -75.461 -40.613 -25.122 -46.268 -95.888 -146.98 -173.09 -166.48 -142.52 -127.45 -138.6 -171.18 -201.14 -201.81 -162.93 -98.568 -38.782 -10.798 -22.661 -60.078 -97.795 -116.91 -116.01 -108.95 -112.06 -130.43 -153.55 -162.95 -145.92 -105.37 -58.664 -26.505 -19.938 -34.317 -54.038 -64.085 -60.028 -49.761 -46.519 -58.814 -84.575 -113.19 -133.17 -139.38 -134.78 -126.06 -117.48 -107.98 -93.906 -74.637 -56.258 -49.51 -62.927 -95.957 -137.33 -170.42 -182.42 -171.44 -146.84 -123 -110.59 -111.37 -119.07 -125.16 -124.85 -119.13 -112.21 -106.98 -102.53 -95.695 -85.1 -74.22 -70.508 -80.788 -106.1 -139.77 -170.43 -187.94 -188.45 -175.25 -155.27 -134.12 -113.35 -91.846 -69.769 -51.526 -44.88 -56.146 -84.632 -120.4 -147.57 -151.77 -127.59 -81.739 -30.014 10.009 26.566 17.739 -9.5059 -43.857 -74.869 -96.362 -107.19 -110.15 -110.17 -112.72 -122.2 -140.38 -165.11 -190.27 -207.49 -209.6 -193.93 -163.78 -126.78 -90.921 -60.546 -34.725 -9.0972 19.919 51.229 78.036 90.525 80.831 47.472 -3.2485 -59.576 -109.01 -142.85 -158.38 -158.06 -146.76 -128.81 -106.57 -80.849 -52.511 -24.095 -0.24637 13.315 11.887 -5.979 -37.13 -74.057 -106.92 -126.8 -129.05 -115.32 -93.152 -72.969 -63.593 -68.222 -82.905 -98.452 -105.01 -97.041 -76.228 -50.623 -30.626 -23.906 -32.022 -50.462 -71.824 -90.063 -103.21 -113.11 -122.56 -132.16 -139.12 -138.96 -129.29 -112.72 -96.952 -91.182 -100.83 -123.72 -150.29 -168.26 -169.14 -153.1 -129.02 -109.62 -104.34 -113.93 -129.89 -138.99 -130.29 -100.66 -56.197 -9.0829 27.773 45.284 39.961 13.027 -31.471 -87.831 -148.72 -205.09 -247.33 -268.12 -265.61 -244.72 -215.27 -187.4 -166.88 -153.31 -142.37 -130.59 -119.45 -115.55 -126.52 -154.99 -194.89 -232.83 -254.25 -251 -225.54 -189.31 -156.2 -135.05 -125.73 -120.98 -112.38 -96.574 -77.729 -64.927 -66.466 -84.781 -115.1 -148.31 -175.99 -194.34 -204.86 -211.96 -219.34 -227.56 -233.97 -234.6 -226.43 -208.72 -182.99 -152.25 -120.14 -90.653 -67.775 -54.744 -52.645 -58.904 -66.691 -65.995 -46.391 -0.64981 72.189 165.52 266.32 358.58 428.14 467.48 478.83 474.31 472.67 493.57 551.25 650.26 784.7 941.1 1103.3 1256.7 1390.9 1499 1577.4 1625.3 1646.3 1649.1 1647.5 1655.8 1683.1 1727.3 1773.9 1800.1 1783.8 1711.8 1585 1416.2 1224.1 1025.1 829.75 642.48 465.71 303.26 160.83 43.071 -50.538 -127.58 -200.25 -279.39 -368.18 -459.43 -538.33 -589.64 -605.5 -589.5 -554.77 -516.82 -485.08 -457.93 -424.29 -371.44 -294.95 -205.12 -125.53 -83.339 -95.718 -159.29 -248.87 -327.15 -361.13 -337.02 -265.9 -176.93 -101.86 -59.468 -48.289 -51.305 -48.984 -32.4 -8.4402 5.6617 -5.5468 -44.962 -100.32 -151.11 -180.25 -182.98 -167.77 -149.19 -138.1 -135.38 -132.93 -120.32 -92.405 -52.876 -12.251 17.714 29.266 20.811 -4.1224 -39.184 -76.877 -109.28 -128.95 -130.98 -115.59 -89.093 -61.469 -40.944 -28.824 -18.511 -0.37212 29.996 65.674 89.497 83.011 38.485 -33.673 -107.67 -154.75 -158.53 -124.05 -74.89 -39.703 -35.944 -60.317 -91.368 -102.46 -77.446 -20.201 46.956 94.45 99.833 57.927 -17.732 -101.77 -167.96 -199.05 -191.4 -153.73 -101.32 -49.128 -6.6506 23.507 43.459 56.018 61.444 57.017 39.635 9.5561 -27.597 -62.474 -86.688 -97.531 -99.285 -99.777 -104.29 -111.18 -112.79 -101.43 -76.368 -46.347 -24.839 -20.747 -30.97 -40.851 -33.359 -1.4165 45.218 84.131 93.764 67.729 20.187 -21.874 -34.861 -12.693 30.476 70.541 89.408 85.586 72.455 66.285 73.439 86.504 92.047 83.581 68.996 65.637 85.78 123.32 152.84 143.89 82.263 -16.357 -110.91 -156.61 -130.99 -47.819 50.16 115.58 122.77 80.265 22.555 -12.365 -5.1894 35.934 83.659 109.55 99.941 60.826 11.039 -29.664 -49.768 -48.267 -31.416 -8.117 13.079 25.367 25.223 14.626 2.1306 0.12764 18.027 55.053 98.301 129.17 135.29 120.08 102.21 103.63 133.48 179.17 212.42 207.72 161.43 97.797 56.012 65.503 125.36 202.27 249.48 235.5 163.91 71.526 5.9587 -2.8727 41.055 105.59 153.08 164.12 146.95 127.41 128.19 152.24 181.74 191.99 169.65 122.3 73.293 46.72 53.27 86.416 129.86 169.37 200.06 224.89 247.42 266.07 274.8 269.11 251.52 231.05 216.61 209.79 203.55 188.89 164.43 140.88 135.48 159.22 206.31 254.77 279.49 269.54 237.08 210.31 213.92 250.12 294.36 310.21 274.63 196.57 115.13 76.957 106.53 188.89 276.82 318.82 290.37 208.78 122.15 79.623 101.71 168.96 234.99 254.57 208.84 112.98 3.7335 -83.144 -130.6 -143.54 -138.46 -129.15 -118.66 -101.95 -74.822 -40.916 -10.951 4.8648 4.8281 -2.5338 -4.708 5.103 22.088 32.304 22.025 -12.475 -61.423 -106.61 -131.47 -129.47 -105.84 -72.354 -39.759 -13.024 7.9497 24.076 33.559 32.244 17.427 -8.3822 -37.371 -60.69 -74.099 -80.517 -87.06 -98.306 -110.74 -113.06 -92.984 -46.751 15.455 72.325 101.78 92.898 51.993 -1.0573 -44.242 -65.573 -68.51 -67.449 -76.449 -98.583 -122.91 -131.05 -109.29 -58.359 5.2274 57.55 80.286 70.675 42.527 17.791 13.707 32.952 62.221 79.648 66.594 17.253 -58.731 -141.3 -209.32 -249.11 -258.38 -244.67 -220.17 -196.17 -179.58 -172.26 -172.4 -176.68 -181.95 -186.24 -188.94 -190.52 -191.71 -192.5 -191.41 -185.58 -171.92 -148.93 -118.24 -84.871 -55.749 -37.239 -32.795 -41.901 -60.593 -83.02 -103.1 -115.7 -117.4 -107.16 -87.049 -62.419 -40.689 -28.625 -29.035 -38.852 -50.235 -54.697 -48.155 -33.782 -20.502 -17.636 -28.881 -49.589 -69.456 -79.185 -76.834 -69.411 -68.207 -80.573 -103.53 -123.87 -125.27 -98.586 -48.704 6.4271 44.658 51.362 27.243 -12.261 -45.528 -56.246 -41.398 -11.687 15.24 24.581 11.88 -15.223 -41.196 -50.205 -33.482 6.4894 56.34 96.512 108.71 83.548 25.281 -48.783 -114.87 -152.98 -155.94 -132.48 -101.81 -82.44 -81.162 -89.173 -88.025 -62.296 -11.271 47.988 88.774 89.624 47.068 -21.69 -87.935 -126.95 -130.51 -109.04 -82.808 -68.378 -68.93 -74.316 -69.895 -47.775 -12.958 19.253 32.375 18.254 -18.882 -65.619 -107.04 -133.83 -144.99 -145.66 -142.62 -140.35 -139.57 -137.87 -131.14 -115.1 -86.907 -47.006 -0.75826 41.854 69.469 74.793 59.245 33.271 10.935 1.2939 1.9665 -0.18013 -20.492 -64.854 -122.53 -169.12 -179.21 -141.54 -67.625 12.344 64.285 67.461 24.115 -43.761 -107.88 -148.75 -163.59 -163.24 -161.79 -166.47 -174.3 -176.6 -166.98 -146.47 -122.29 -101.88 -87.254 -74.324 -57.666 -36.898 -19.4 -16.674 -36.425 -75.777 -120.64 -152.19 -156.75 -132.93 -91.873 -50.734 -23.807 -16.576 -25.61 -43.13 -62.399 -80.351 -96.592 -110.79 -121.37 -126.85 -128.42 -130.99 -140.86 -160.82 -186.19 -205.04 -203.7 -174.72 -122.51 -62.741 -15.209 5.9363 -0.93342 -25.008 -49.949 -63.465 -63.896 -60.047 -64.617 -85.275 -118.66 -150.73 -163.14 -142.21 -85.794 -4.858 80.534 148.57 182.87 176.82 133.9 64.876 -16.444 -97.043 -167.09 -220.6 -254.88 -269.51 -265.62 -245.73 -213.87 -175.51 -136.8 -103.04 -77.235 -59.594 -48.442 -42.252 -41.371 -48.047 -64.374 -89.346 -117.27 -139.27 -147.73 -141.03 -125.41 -111.71 -108.54 -115.9 -124.07 -119.32 -93.737 -52.747 -14.677 -1.3071 -24.395 -76.684 -133.91 -167.77 -162.49 -124.76 -80.095 -57.444 -71.223 -112.3 -153.86 -168.52 -145.75 -98.152 -52.698 -32.849 -43.642 -69.702 -87.261 -81.587 -57.539 -35.782 -37.294 -67.177 -109.44 -136.94 -129.84 -89.952 -40.492 -10.932 -16.942 -49.067 -78.262 -75.072 -29.96 38.717 94.616 105.09 61.005 -17.483 -92.323 -128.44 -111.28 -51.328 25.232 92.037 134.26 150.55 146.8 128.22 96.028 50.273 -5.1719 -60.599 -104.06 -128.13 -134.65 -133.23 -134.28 -141 -146.35 -137.29 -103.86 -47.255 18.407 71.879 94.804 80.284 35.569 -21.942 -72.65 -102.43 -106.86 -90.991 -65.951 -44.07 -34.466 -40.143 -57.328 -77.23 -89.712 -87.519 -69.222 -39.511 -6.8583 19.998 34.768 34.445 18.721 -10.507 -48.565 -86.966 -113.85 -117.5 -92.223 -43.532 11.531 50.653 56.89 28.03 -21.155 -65.883 -84.261 -69.003 -31.325 5.1387 16.763 -8.3 -65.15 -135.72 -197.86 -234.49 -238.61 -213.17 -167.69 -114.3 -64.743 -28.409 -10.754 -12.28 -28.901 -54.229 -82.878 -112.65 -143.77 -175.35 -201.99 -213.7 -200.64 -160.14 -101.18 -42.146 -2.1029 9.4386 -2.3899 -21.703 -32.562 -29.5 -20.714 -21.718 -43.868 -85.848 -134.06 -171.5 -188.45 -187.39 -178.64 -170.69 -163.03 -147.53 -117.47 -77.05 -43.073 -35.892 -65.131 -120.38 -174.63 -199.59 -183.43 -138.89 -95.898 -82.853 -108.83 -158.28 -201.48 -213.43 -188.55 -141.77 -96.631 -69.342 -60.344 -58.352 -52.725 -44.047 -44.654 -68.79 -119.98 -185.41 -241.75 -268.57 -259.96 -226.29 -185.67 -151.63 -126.08 -101.84 -71.624 -35.715 -2.0169 21.266 33.889 45.372 68.077 106.59 152.02 186.9 198.22 189.77 184.05 211.1 290.64 419.2 571.09 713 823.03 901.93 969.68 1050.7 1157.7 1284.6 1412.7 1522.8 1606.5 1667.1 1712.4 1746.3 1766 1767.7 1754.8 1742.3 1750.1 1789.2 1849.9 1899.5 1894 1797.5 1599.6 1320.4 1002.2 691.81 424.37 214.8 59.703 -54.584 -143.38 -218.45 -286.62 -350.43 -409.03 -458.91 -495.52 -515.85 -520.91 -515.95 -507.53 -498.72 -485.94 -460.11 -412.43 -341.45 -256.59 -175.32 -114.95 -83.945 -77.851 -82.471 -82.184 -68.335 -42.88 -15.732 1.7784 2.9527 -12.045 -38.051 -68.47 -97.623 -120.7 -132.47 -127.16 -100.71 -54.51 1.9957 52.578 79.647 71.655 28.699 -36.755 -104.67 -155.56 -178.16 -173.1 -151.18 -127.19 -112.47 -109.61 -111.94 -107.9 -88.252 -52.235 -9.3974 24.401 34.962 17.528 -20.099 -61.203 -88.828 -94.688 -83.12 -67.732 -62.698 -73.957 -95.594 -113.47 -113.75 -91.019 -51.288 -8.4991 22.899 34.686 27.389 8.0472 -14.473 -33.498 -46.1 -52.435 -54.291 -53.957 -53.416 -53.345 -52.011 -45.175 -28.186 -0.019121 33.215 58.614 62.265 38.186 -5.1559 -46.253 -61.045 -37.361 15.688 70.578 96.549 78.774 29.472 -17.188 -24.745 22.621 108.13 189.6 222.33 184.25 88.244 -25.479 -112.06 -145.61 -129.97 -91.286 -59.044 -48.36 -54.543 -61.652 -57.37 -42.97 -31.625 -37.13 -61.985 -93.911 -113.5 -107.57 -78.664 -43.915 -23.879 -29.011 -52.893 -76.657 -81.42 -60.29 -22.125 15.001 35.779 36.95 28.003 23.453 32.366 52.317 71.494 77.088 64.018 38.216 12.629 -0.97838 1.2198 14.134 28.765 39.392 47.78 61.48 87.344 124.72 163.13 186.51 181.75 146.57 91.771 36.376 -1.8233 -14.731 -6.6271 10.306 24.519 32.174 38.245 51.157 74.858 104.11 126.79 132.13 119.54 101.38 96.941 120.27 169.49 224.88 257.96 247.08 190.27 107.53 30.872 -12.011 -10.848 24.78 74.089 118.36 150 172.28 191.32 207.51 213.22 198.7 161.51 111.76 68.606 49.334 58.676 85.884 112.12 123.36 120.01 116.3 129.9 168.72 224.13 275.42 302.29 296.93 267.47 230.93 201.16 180.57 161.46 135.27 102.52 75.276 70.061 96.011 147.11 204.53 247.94 267.87 270.49 271.19 281.69 299.89 310.23 294.44 245.49 174.69 106.7 65.627 61.497 86.093 120.48 148.38 165.65 179.59 199.25 225.07 246.29 248.94 228.59 197.95 182.17 203.4 264.17 341.15 394.84 390.41 317.73 198.31 75.139 -8.5539 -29.377 8.0547 77.524 146.33 189.46 195.87 166.54 109.16 34.735 -42.5 -104.8 -134.33 -120.88 -69.667 -2.5947 50.203 65.508 40.01 -7.5104 -47.25 -56.526 -33.673 1.3643 20.38 5.6483 -38.163 -86.742 -111.72 -98.85 -56.896 -11.699 10.394 -1.2656 -36.098 -70.314 -82.486 -66.254 -32.481 -0.75363 13.032 4.5555 -19.719 -49.618 -78.194 -103.38 -124.29 -136.81 -133.56 -109.31 -67.916 -24.148 2.6033 -0.011536 -28.085 -61.887 -77.153 -60.795 -20.822 16.751 23.032 -15.59 -87.619 -161.4 -202.03 -190.1 -131.13 -50.906 19.476 59.077 64.171 44.291 11.98 -25.746 -68.669 -117.9 -169.21 -211.26 -230.74 -220.8 -186.71 -144.15 -110.89 -97.134 -100.77 -110.29 -113.11 -103.6 -85.771 -69.547 -63.82 -71.209 -87.671 -106.37 -122.33 -134.47 -143.96 -150.98 -153 -146.05 -127.98 -100.79 -69.811 -40.192 -13.524 12.404 39.966 66.764 83.55 77.694 41.025 -22.692 -96.052 -154.37 -177.32 -159.5 -113.48 -63.417 -32.747 -32.822 -58.814 -94.424 -121.83 -130.66 -121.22 -101.41 -80.71 -65.626 -58.909 -61.374 -73.264 -93.152 -115.34 -129.08 -122.2 -88.667 -35.221 18.137 46.316 32.473 -21.252 -92.967 -151.93 -175.32 -160.62 -125.66 -95.792 -86.409 -92.278 -91.295 -60.653 5.0448 86.131 146.71 155.31 104.68 17.909 -63.359 -101.83 -84.746 -29.334 29.045 58.002 45.256 2.0912 -47.288 -82.085 -95.974 -96.712 -96.529 -101.42 -107.17 -104.25 -86.832 -58.684 -31.413 -16.584 -17.83 -28.829 -38.384 -38.592 -29.953 -19.915 -16.438 -21.805 -31.426 -38.246 -38.96 -36.886 -39.16 -50.538 -68.924 -86.484 -95.802 -96.39 -96.188 -106.31 -132.41 -168.87 -200.55 -211.37 -194.36 -156.36 -114.22 -85.088 -77.052 -86.133 -100.85 -110.64 -112.14 -109.53 -109.63 -115.94 -126.1 -134.05 -134.63 -126.72 -112.69 -95.351 -75.299 -51.373 -23.757 3.1634 21.326 23.456 8.6471 -15.229 -34.875 -39.326 -27.42 -9.9058 -4.2547 -24.725 -73.347 -137.1 -193.05 -218.79 -202.88 -150.05 -79.075 -14.546 23.433 27.092 3.1079 -31.781 -59.677 -70.84 -68.813 -68.32 -86.397 -131.09 -194.13 -252.62 -279.92 -260.23 -198.4 -118.67 -52.102 -20.102 -23.868 -46.443 -65.919 -70.952 -68.028 -75.394 -107.77 -162.67 -218.36 -246.05 -228.49 -172.69 -107.5 -66.772 -68.772 -104.92 -145.53 -158.79 -130.91 -74.684 -21.357 -1.5691 -27.586 -87.492 -153.74 -199.38 -211.49 -194.26 -162.09 -129 -101.77 -80.209 -62.135 -47.879 -40.613 -43.017 -53.968 -68.691 -82.506 -94.95 -110.45 -134.4 -167.4 -202.18 -226.03 -227.65 -203.88 -161.74 -114.57 -74.987 -49.378 -37.218 -34.59 -38.505 -48.499 -64.673 -84.545 -102.06 -110.29 -106.16 -93.436 -81.427 -79.702 -92.333 -115.49 -139.86 -156.03 -158.94 -148.97 -129.57 -104.46 -76.729 -50.51 -32.676 -31.896 -54.293 -98.21 -152.24 -199.01 -223.45 -220.43 -197.03 -167.45 -143.9 -129.58 -118.28 -100.84 -73.638 -42.967 -22.088 -22.814 -47.407 -86.335 -123.39 -144.7 -145.78 -132.27 -114.65 -101.02 -92.838 -86.101 -76.252 -62.806 -50.349 -45.528 -52.576 -70.715 -95.037 -119.79 -141.45 -159.47 -174.77 -187.54 -196.49 -199.79 -196.72 -188.27 -176.3 -161.89 -144.86 -125.05 -104.48 -88.359 -83.293 -93.455 -117.02 -145.77 -168.79 -178.34 -174.33 -164.28 -158.61 -164.07 -179.42 -196.05 -203.21 -194.35 -170.9 -141.25 -115.95 -102.3 -101.49 -109.56 -120.97 -132.16 -142.85 -154.57 -167.88 -180.2 -185.93 -178.87 -155.75 -118.71 -75.52 -36.979 -12.621 -6.592 -15.803 -31.505 -43.8 -46.911 -42.341 -37.826 -42.308 -59.592 -84.595 -104.93 -107.53 -86.611 -48.202 -7.9341 17.009 17.206 -4.1189 -33.716 -56.856 -66.354 -66.256 -67.837 -80.614 -104.46 -128.23 -136.09 -117.53 -74.68 -22.12 20.764 40.092 34.203 12.961 -9.3442 -22.691 -26.246 -27.053 -34.133 -52.227 -78.985 -106.67 -126.53 -132.74 -124.09 -103.38 -76.1 -49.494 -31.802 -30.687 -50.274 -87.928 -133.18 -170.7 -186.91 -176.95 -147.84 -115.34 -95.773 -97.386 -116.37 -139.91 -154.25 -152.67 -138.37 -121.02 -109.5 -106.33 -107.23 -105.94 -100.31 -95.141 -99.359 -119.43 -153.67 -191.53 -218.59 -224.12 -206.33 -172.15 -132.21 -94.88 -63.286 -36.973 -16.007 -3.6703 -5.1757 -23.162 -53.652 -86.204 -109.08 -116.33 -111.74 -106.32 -110.35 -125.03 -139.78 -137.78 -107 -49.984 14.126 57.36 56.501 4.8705 -84.27 -184.34 -267.99 -318.43 -333.9 -324.13 -302.27 -277.6 -252.79 -225.81 -193.96 -156.79 -116.74 -77.988 -45.421 -24.36 -20.408 -38.152 -78.403 -135.45 -196.71 -246.15 -270.46 -264.66 -233.89 -190.1 -145.85 -108.97 -81.232 -61.089 -47.565 -41.908 -45.621 -56.857 -68.928 -73.353 -66.251 -53.556 -50.361 -73.193 -129.05 -208.08 -285.38 -331.92 -328.83 -276.78 -194.86 -109.99 -43.337 -1.7753 21.32 38.058 57.114 80.013 104.17 129.09 159.97 205.45 271.35 355.3 447.41 536.78 619.56 702.24 797.15 913.07 1047.5 1186.4 1312.6 1416.1 1499.4 1573.8 1648.4 1720.5 1775.5 1797.2 1781.5 1744.3 1715.7 1722.4 1768.7 1829.9 1861.7 1822.7 1696.7 1499.9 1270.8 1047.2 846.64 661.04 468.89 255.29 26.493 -190.81 -364.54 -476.08 -530.32 -550.55 -562.52 -578.86 -594.4 -594.82 -571.4 -530.83 -492.37 -474.4 -479.98 -492.15 -483.15 -432.1 -339.32 -227.82 -130.4 -70.826 -51.103 -52.846 -51.328 -32.466 -1.436 22.432 20.427 -11.54 -59.318 -99.612 -115.4 -107.05 -91.648 -90.832 -115.52 -157.55 -193.98 -201.25 -170.23 -112.67 -55.113 -24.113 -31.724 -69.592 -114.44 -141.09 -135.22 -99.24 -49.159 -5.3324 17.189 14.12 -8.3876 -38.295 -63.417 -75.81 -73.689 -60.996 -45.29 -34.7 -34.774 -46.308 -65.184 -84.56 -98.475 -104.91 -106.34 -107.31 -110.42 -113.57 -110.52 -94.804 -64.611 -25.339 12.214 37.143 44.026 35.242 18.607 2.0132 -11.228 -23.179 -37.824 -56.061 -73.022 -80.034 -70.204 -43.861 -9.8876 18.425 30.671 25.192 9.6757 -3.9827 -7.2881 -0.34834 8.6129 8.9825 -5.1187 -30.959 -58.952 -78.664 -84.99 -80.476 -72.547 -67.812 -67.512 -67.183 -60.606 -45.175 -24.885 -8.8548 -6.2747 -21.001 -49.118 -80.739 -104.69 -113.14 -103.92 -79.824 -46.543 -10.788 20.488 40.455 43.577 27.964 -2.2934 -36.872 -62.358 -67.937 -50.75 -17.658 17.988 42.977 50.459 42.182 25.717 8.9002 -4.5884 -15.648 -26.378 -35.987 -39.629 -31.591 -10.712 16.223 36.451 38.278 19.028 -11.581 -35.659 -37.116 -11.471 30.797 69.894 88.185 80.486 56.715 35.233 31.126 46.919 71.619 88.533 86.666 68.208 47.238 40.522 56.344 88.55 119.59 130.66 112.7 71.761 25.727 -5.2179 -8.7536 14.369 52.28 89.133 112.99 120.3 115.41 106.32 99.576 97.051 95.82 90.86 79.056 62.62 50.142 54.231 85.991 148.29 231.09 312.22 364.54 367.56 317.78 232.11 141.33 76.053 52.269 64.411 90.171 104.42 94.194 65.77 39.674 36.801 64.466 111.22 153.69 171.06 157.8 126.66 100.1 95.916 116.38 147.74 170.05 170.68 152.62 132.54 130.3 156.81 207.97 267.59 316.72 342.66 342.65 320.99 283.46 233.69 173.95 108.63 46.561 -0.73101 -24.232 -22.207 -0.7483 30.641 65.227 102.2 144.17 190.89 234.46 260.71 257.12 222.33 170.28 124.79 106.93 122.69 159.12 191.82 199.39 175.78 132.71 91.081 67.365 64.398 72.227 77.675 75.071 70.112 74.089 93 120.01 137.4 127.32 84.005 18.831 -45.531 -88.087 -100.79 -90.687 -71.994 -54.548 -37.229 -11.219 29.662 79.748 121.06 132.85 104.88 45.228 -23.424 -76.635 -101.84 -103.64 -97.682 -98.022 -107.17 -115.8 -111.61 -90.13 -59.081 -32.627 -20.076 -17.77 -10.972 14.811 60.92 110.66 136.91 118.02 51.812 -41.543 -129.87 -185.97 -200.58 -183.87 -155.75 -132.44 -118.32 -107.4 -91.703 -69.415 -46.803 -33.207 -33.737 -45.592 -60.578 -71.344 -76.078 -78.042 -80.83 -83.872 -82.504 -72.923 -57.877 -47.671 -54.368 -82.608 -123.91 -159.72 -172.41 -157.46 -128.1 -108.28 -117.67 -158.08 -210.65 -246.05 -241.83 -195.97 -128.07 -67.539 -36.522 -38.278 -57.883 -74.008 -73.483 -59.07 -45.812 -48.983 -71.985 -102.26 -117.86 -100.7 -48.322 22.65 83.389 106.3 78.051 5.7794 -86.004 -166.05 -209.44 -207.32 -169.45 -118.74 -80.468 -71.041 -91.515 -128.67 -162.89 -178.59 -171.47 -148.78 -122.93 -102.79 -88.445 -72.914 -49.404 -18.885 7.8239 15.584 -5.1588 -50.756 -104.62 -145.86 -161.03 -151.37 -130.56 -114.32 -108.93 -106.3 -89.542 -45.468 23.993 99.226 151.41 157.29 111.54 29.674 -59.828 -129.23 -163.23 -162.91 -141.21 -113.92 -91.819 -77.677 -68.168 -58.186 -44.589 -27.853 -11.83 -2.4786 -6.0973 -27.006 -64.881 -112.83 -157.94 -185.29 -184.5 -155.52 -110.31 -68.377 -48.03 -57.622 -91.594 -133.48 -164.2 -171.03 -152.72 -118.63 -83.17 -59.087 -52.904 -63.87 -85.642 -109.01 -124.42 -124.18 -104.57 -67.725 -22.262 18.652 41.768 39.224 12.229 -29.237 -70.865 -100.4 -112.59 -110.36 -101.88 -95.86 -97.569 -107.46 -122.23 -136.75 -145.57 -143.68 -127.22 -94.933 -50.149 -1.6161 38.231 57.866 52.242 26.16 -7.0673 -31.708 -37.581 -25.57 -7.3972 0.588 -13.561 -50.349 -97.608 -135.82 -147.28 -124.53 -74.039 -13.598 34.966 54.277 37.381 -10.895 -77.094 -144.84 -200.54 -236.86 -253.35 -254.51 -246.74 -235.68 -224.8 -215.39 -207.45 -200.69 -194.98 -190.28 -186.35 -182.63 -178.65 -174.55 -171.41 -170.86 -174.01 -180.29 -186.85 -189.2 -182.82 -165.36 -138.2 -106.74 -78.905 -62.52 -62.423 -78.602 -106.16 -137.27 -164.29 -182.73 -192.55 -197.1 -200.12 -202.41 -200.3 -187.11 -157.21 -110.74 -55.817 -6.5016 23.375 27.465 11.189 -10.009 -18.327 -3.5622 30.086 64.693 77.206 51.889 -10.045 -89.229 -156.63 -187.62 -174.24 -128.96 -77.918 -47.259 -50.218 -81.799 -123.64 -155.63 -167.33 -162.47 -154.54 -156.83 -173.43 -196.74 -212.84 -210.73 -189.48 -158.74 -132.62 -121.19 -125.1 -136.52 -145.26 -145.62 -139.43 -133.53 -134 -141.36 -149.94 -151.62 -141.01 -118.47 -89.308 -60.422 -37.081 -22.041 -16.702 -22.227 -38.802 -63.385 -88.463 -104.4 -105.33 -95.17 -88.758 -105.38 -157.13 -238.74 -326.25 -386.87 -395.49 -348.43 -265.85 -180.98 -122.51 -100.75 -105.7 -117.25 -120.01 -112.57 -105.51 -110.58 -129.71 -152.28 -162.67 -152.29 -126.72 -102.15 -93.293 -101.47 -112.2 -104.78 -67.573 -8.2258 49.203 78.952 70.414 35.379 0.19355 -12.205 1.8491 24.145 27.48 -4.4773 -63.964 -121.94 -145.69 -119.79 -56.802 9.5377 44.073 30.311 -21.799 -84.521 -130.76 -149.7 -149.88 -148.85 -157.97 -173.42 -179.8 -163.17 -123.92 -79.718 -55.975 -69.901 -118.82 -180.78 -227.31 -240.24 -221.94 -192.53 -176.37 -186.58 -217.4 -248.83 -259.78 -240.98 -199.59 -153.01 -117.09 -96.741 -85.309 -72.297 -53.519 -35.937 -33.408 -56.074 -100.89 -150.45 -181.72 -179.65 -146.76 -102.17 -70.13 -65.21 -83.445 -105.08 -106.98 -76.608 -18.733 48.795 106.29 142.28 155.65 149.72 124.41 74.116 -5.7591 -108.37 -210.15 -277.43 -283.36 -225.13 -129.3 -39.903 5.176 -5.0142 -49.781 -91.67 -101.37 -76.154 -39.634 -23.154 -42.049 -83.524 -114.98 -107.21 -56.263 11.673 56.338 49.693 -5.4784 -77.458 -126.58 -130.86 -98.742 -60.952 -47.821 -68.529 -106.51 -133.3 -129.85 -99.41 -63.051 -41.885 -40.058 -41.664 -24.091 22.279 83.165 127.21 126.4 75.874 -1.2828 -68.006 -96.695 -86.176 -60.916 -53.596 -83.437 -144.84 -212.98 -260.99 -275.98 -263.25 -237.65 -210.29 -181.42 -144.25 -95.707 -44.369 -8.5707 -5.4116 -38.826 -95.694 -153.04 -191.18 -203.54 -196.81 -182.6 -167.71 -150.68 -126.48 -94.428 -62.163 -41.679 -40.464 -54.962 -72.083 -78.163 -68.762 -51.744 -41.168 -46.655 -66.447 -89.542 -105.08 -111.28 -116.51 -131.08 -156.27 -179.76 -182.28 -151.71 -94.645 -36.098 -6.3293 -22.817 -79.386 -149.88 -203.91 -223.99 -213.05 -188.09 -165.8 -150.87 -134.9 -105.57 -58.216 -0.94644 50.187 81.407 88.672 76.932 52.756 17.305 -33.88 -103.77 -185.49 -260.57 -306.9 -311.79 -280.69 -234.67 -197.39 -180.23 -176.02 -165.77 -133.61 -79.291 -19.19 24.76 40.138 32.227 19.655 21.076 42.93 77.249 110.73 137.77 166.99 215.96 297.37 407.09 523.45 619.22 678.95 709.94 739.13 797.65 902.59 1047.2 1204.8 1343.7 1442.4 1497.2 1520 1527.7 1533.7 1543.9 1559.2 1579.4 1605.1 1636.1 1667.6 1688.3 1682.8 1635.9 1537.5 1385.8 1187.1 954.24 704.9 459.68 239.18 59.878 -70.412 -155.17 -207.97 -247.33 -289.69 -343.89 -409.48 -478.96 -542.04 -589.65 -616.32 -620.91 -606.4 -578.88 -545.55 -511.69 -477.94 -439.92 -391.49 -330.45 -263.16 -203.85 -167.8 -161.5 -176.51 -192.09 -186.35 -149.66 -91.358 -34.548 -1.5663 0.60764 -15.079 -24.849 -11.098 24.391 60.622 71.49 44.418 -9.5934 -62.085 -85.85 -73.5 -42.699 -23.76 -37.594 -79.132 -118.15 -117.83 -59.355 43.65 150.44 215.05 211.08 144.24 46.123 -45.308 -105.33 -130.73 -134.01 -130.32 -127.32 -124.04 -117.07 -106.87 -98.457 -96.052 -97.266 -92.895 -73.64 -38.864 -0.043654 24.865 22.878 -4.9599 -43.882 -75.244 -88.783 -88.103 -85.222 -88.553 -94.152 -87.93 -58.04 -7.9899 40.811 61.338 40.999 -4.9204 -38.003 -19.343 63.362 182.67 283 311.88 252.24 134.79 21.588 -30.093 -1.5211 77.097 146.01 152.85 83.985 -28.627 -128.53 -169.51 -142.09 -76.301 -20.558 -11.444 -53.365 -119.44 -170.87 -181.05 -149.26 -97.238 -52.961 -33.52 -37.597 -50.463 -56.152 -47.839 -30.228 -14.011 -7.6051 -12.105 -22.087 -30.408 -32.86 -29.548 -22.925 -14.867 -5.3605 6.4805 20.452 34.387 45.261 51.328 53.408 54.157 55.834 58.335 59.129 55.252 45.966 34.132 25.251 24.714 34.896 53.719 75.306 92.194 98.053 89.964 69.762 44.128 23.111 16.933 31.687 65.581 107.91 142.21 153 133.16 88.133 34.318 -7.9725 -23.464 -8.1845 30.042 76.621 117.48 144.52 156.85 158.27 153.53 146.06 137.92 130.78 126.21 124.49 123.16 117.16 101.62 75.915 46.311 24.513 22.202 44.439 86.084 133.89 173.38 196.29 204.06 204.95 206.94 211.14 210.44 194.56 158.18 106.9 56.506 25.651 26.016 55.908 101.18 142.88 167.13 171.38 163.84 156.99 159.44 171.08 184.08 188.33 177.88 154.27 125.61 102.25 92.176 98.386 118.96 148.75 181.18 209.29 226.58 228.21 212.89 184.41 151.27 123.76 109.37 109.27 118.1 127.81 133.34 136.61 145.91 170.44 213.26 267.22 316.96 346.25 346.72 322.45 287.49 257.74 241.9 237.3 232.78 216.89 185.75 145.87 110.05 89.643 88.047 99.608 114.05 122.87 123.28 117.33 107.83 94.746 75.402 48.226 16.838 -9.4811 -20.24 -10.491 15.012 43.782 62.974 67.319 61.925 57.672 62.26 73.506 80.249 70.86 43.524 10.449 -8.1193 2.995 42.394 90.77 121.9 119.55 88.984 54.711 44.658 70.692 118.44 154.07 144.8 80.449 -18.062 -109.23 -154.68 -141.41 -88.696 -35.539 -16.723 -42.683 -95.4 -141.98 -156.25 -134.21 -93.909 -61.136 -51.567 -61.529 -73.058 -68.742 -45.36 -16.635 -3.388 -18.256 -55.792 -94.897 -111.96 -95.876 -55.078 -12.222 9.572 -0.10998 -34.398 -75.048 -103.98 -112.67 -104.31 -88.853 -75.897 -70.371 -72.88 -82.445 -97.977 -116.83 -132.3 -133.86 -111.97 -65.449 -6.0442 44.622 65.609 49.129 6.7833 -35.531 -52.098 -32.847 10.006 48.867 57.483 27.281 -26.945 -75.711 -92.564 -69.832 -22.673 20.884 37.427 22.199 -8.8404 -29.83 -21.648 15.871 63.284 92.371 81.682 27.865 -53.062 -134.21 -190.65 -209.51 -192.95 -153.88 -107.94 -66.536 -33.823 -8.2652 13.317 31.875 44.608 46.376 33.092 5.0599 -31.775 -67.661 -93.282 -104.14 -102.46 -95.225 -89.284 -86.644 -83.235 -72.37 -50.828 -23.19 -0.73027 5.3424 -7.7864 -30.578 -45.286 -36.63 -2.491 42.771 75.539 76.93 44.771 -4.4667 -45.558 -60.035 -47.113 -22.687 -7.1498 -10.639 -26.275 -36.378 -27.276 -1.7193 20.927 18.039 -18.096 -70.479 -104.3 -87.726 -13.65 92.184 183.19 217.54 181.68 97.213 7.1185 -49.692 -59.208 -36.207 -10.32 -4.9686 -23.536 -51.027 -68.149 -66.461 -53.512 -45.063 -51.262 -67.845 -79.195 -70.783 -41.297 -4.9132 18.35 17.17 -2.6187 -22.259 -24.21 -5.8187 17.854 24.658 2.0688 -42.237 -84.164 -99.348 -80.521 -43.541 -17.147 -23.002 -59.768 -102.74 -120.04 -94.909 -38.989 13.005 24.42 -19.627 -101.26 -178.84 -210.47 -177.69 -95.143 -1.2033 63.874 78.779 49.291 0.71802 -38.955 -54.345 -48.157 -35.675 -33.59 -50.5 -83.791 -122.79 -154.74 -169.86 -163.84 -138.13 -99.221 -57.147 -22.861 -4.4348 -3.5414 -14.558 -27.712 -35.128 -36.114 -37.809 -50 -77.029 -112.32 -139.95 -143.22 -115.25 -64.717 -12.271 20.477 22.941 0.8094 -28.775 -48.919 -53.844 -51.744 -57.872 -82.664 -123.09 -163.29 -184.25 -176.2 -145.45 -110.9 -92.163 -96.927 -115.43 -125.86 -107.5 -53.671 23.048 96.424 139.6 138.15 96.227 32.94 -28.173 -70.619 -91.281 -98.949 -106.67 -122.6 -144.51 -160.7 -156.89 -125.25 -70.772 -11.145 30.294 35.488 0.94268 -59.772 -122.19 -162.99 -171.63 -154.94 -131.88 -121.3 -129.89 -147.84 -155.18 -135.25 -86.905 -27.476 15.938 21.989 -11.994 -67.766 -116.17 -133.38 -113.58 -70.704 -28.904 -8.2506 -14.74 -40.017 -69.527 -92.479 -106.68 -115.88 -123.14 -126.42 -120.43 -103.18 -81.342 -68.812 -77.948 -109.1 -146.52 -165.24 -146.05 -89.214 -17.25 36.45 47.156 14.325 -37.262 -72.371 -67.428 -25.973 22.755 41.886 10.787 -60.092 -132.97 -163.39 -125.74 -28.704 88.278 175.36 197.75 152.18 66.283 -17.578 -64.136 -60.934 -20.765 28.465 59.419 57.841 26.373 -20.394 -65.233 -96.274 -109.94 -108.66 -96.018 -73.228 -39.024 7.0373 60.5 110.38 141.96 143.25 111.84 57.856 0.65807 -39.921 -53.208 -42.741 -23.442 -12.25 -17.701 -34.953 -49.549 -47.674 -26.279 3.7427 23.703 18.755 -12.676 -58.049 -99.057 -123.45 -132.1 -136.4 -147.89 -167.93 -185.13 -183.13 -153.44 -103.96 -56.296 -32.713 -41.194 -69.144 -90.918 -84.883 -48.808 -2.8518 22.592 6.7105 -47.222 -112.46 -154.49 -151.87 -108.75 -51.215 -10.143 -2.0794 -20.341 -41.614 -42.924 -17.385 21.365 48.218 42.458 -0.096382 -65.837 -132.54 -181.94 -207.59 -214.11 -210.25 -201.79 -189.14 -170.05 -143.95 -113.7 -83.501 -55.333 -27.588 2.3024 33.118 57.097 62.22 38.858 -13.382 -83.408 -152.9 -204.66 -230.01 -231.03 -217 -198.15 -180.84 -166.76 -155.2 -145.92 -139.97 -138.64 -141.93 -148.44 -156.61 -165.76 -175.42 -183.31 -184.1 -171.17 -141.35 -99.377 -58.102 -32.61 -31.13 -48.797 -69.51 -76.001 -62.1 -38.659 -28.012 -49.504 -105.29 -176.38 -232.54 -250.38 -227.84 -185.18 -151.39 -145.1 -162.81 -182.7 -181.34 -151.46 -107.98 -77.472 -78.106 -104.08 -126.2 -109.37 -35.974 80.365 200.24 280.41 298.58 265.79 219.13 200.22 233.3 315.92 426.07 539 641.58 735.67 830.49 931.85 1037 1138.2 1231.7 1322.3 1420.3 1531.4 1647.6 1747.7 1807.3 1814.6 1780 1733.2 1708.6 1725.9 1779.3 1839 1864.7 1823.3 1699.9 1500.4 1244.7 958.93 669.49 400.95 174.41 4.1061 -107.79 -174.11 -219.41 -269.63 -339.36 -424.05 -502.96 -551.99 -559.26 -533.48 -499.46 -482.6 -492.02 -513.07 -514.83 -468.69 -367 -230.23 -97.871 -8.1688 21.28 0.60597 -41.324 -75.768 -90.667 -94.615 -106.34 -137.42 -180.23 -209.92 -199.41 -138.01 -41.167 55.62 115.59 120.68 80.451 24.367 -17.181 -30.946 -26.5 -26.438 -48.237 -90.358 -132.09 -147.26 -122.53 -67.703 -10.854 18.794 9.1437 -27.42 -62.431 -70.036 -43.855 -1.1458 28.192 20.55 -26.603 -93.126 -148.17 -167.76 -147.14 -101.11 -53.565 -23.75 -17.544 -27.968 -42.632 -52.112 -53.968 -51.12 -47.374 -44.149 -40.534 -35.665 -30.615 -27.838 -28.648 -31.147 -30.783 -23.569 -9.6732 5.4699 13.754 9.242 -7.8686 -30.781 -49.484 -55.934 -48.081 -30.76 -13.405 -6.104 -15.784 -43.68 -84.517 -127.52 -159.32 -168.48 -150.19 -108.94 -57.052 -9.0473 25.491 46.353 61.172 78.428 99.395 114.84 109.65 73.134 8.4611 -65.781 -124.02 -147.58 -135.36 -103.92 -76.658 -68.779 -78.016 -87.347 -77.9 -43.192 5.1322 44.125 54.298 32.145 -8.1399 -44.759 -62.865 -63.154 -58.447 -61.025 -70.41 -71.25 -43.836 19.585 104.42 177.7 205.46 173.08 95.651 11.119 -40.233 -37.69 9.6068 69.719 107.33 103.46 64.037 13.503 -21.1 -25.247 -2.6677 30.041 54.812 61.793 52.129 33.925 15.59 1.3043 -9.3119 -18.528 -27.632 -35.774 -40.44 -38.321 -25.756 0.71665 42.651 96.798 152.88 194.77 206.32 179.85 122.5 55.569 5.8218 -7.4079 17.976 66.234 113.22 140.42 144.96 139.49 142.01 162.4 194.77 220.8 222.2 194.25 151.07 118.71 119.72 158.72 218.03 266.57 277.06 241.3 174.64 107.25 67.464 67.132 97.052 134.43 157.18 156.36 140.02 127.03 135.36 171.79 228.18 285.43 321.89 321.83 280.65 205.9 115.2 31.987 -20.107 -24.022 24.177 111.67 211.1 289.47 321.13 298.76 236.39 162.12 103.78 75.311 71.72 75.285 69.166 49.644 29.089 27.651 59.032 119.75 189.25 241.13 258.63 244.29 217.65 202.39 211.25 238.38 263.84 267.12 240.53 194.06 148.89 124.36 127.08 148.71 173.02 186.44 184.9 173.01 157.8 142.55 125.81 105.57 84.419 70.164 70.353 84.44 100.18 98.705 66.427 6.4331 -59.114 -98.772 -89.083 -29.112 57.03 131.78 163.29 140.85 78.105 2.9967 -58.151 -92.501 -102.23 -96.989 -84.328 -65.393 -38.203 -4.5038 26.548 41.936 33.576 5.6727 -25.712 -41.856 -33.77 -9.3007 10.493 3.9967 -37.226 -102.6 -168.49 -211.98 -223.66 -211.09 -191.49 -179.08 -175.95 -172.48 -156.35 -123.55 -83.188 -52.77 -47.208 -68.923 -105.69 -137.44 -147.41 -130.49 -94.177 -52.628 -18.611 1.3488 6.5358 -1.5469 -21.873 -53.182 -90.955 -125.73 -145.74 -143.41 -121.47 -93.77 -78.887 -89.644 -124.94 -169.56 -202.53 -209.2 -189.31 -156.06 -126.89 -112.34 -110.34 -109.51 -98.808 -76.274 -50.639 -34.672 -35.276 -47.889 -59.719 -59.82 -48.606 -39.201 -48.477 -83.278 -131.6 -166.17 -159.88 -104.07 -17.69 59.933 89.596 54.313 -30.624 -126.12 -191.41 -206.39 -180.56 -143.59 -124.31 -131.99 -152 -158.09 -132.47 -79.653 -24.723 3.077 -9.875 -51.779 -92.414 -102.49 -72.636 -19.57 24.598 32.858 0.3398 -52.897 -94.667 -100.51 -67.945 -16.716 24.172 33.71 9.7316 -32.353 -70.61 -89.525 -87.043 -72.824 -60.66 -60.737 -75.971 -102.81 -133.99 -160.61 -173.31 -163.77 -127.98 -70.126 -3.9841 50.808 77.043 68.496 33.179 -11.464 -48.908 -72.908 -89.59 -110.81 -143.46 -182.38 -212.27 -217.55 -193.37 -149.91 -106.7 -80.686 -76.254 -84.107 -89.498 -83.663 -70.061 -60.936 -66.896 -87.492 -110.11 -118.4 -104.36 -75.04 -48.729 -42.655 -60.754 -90.149 -109.11 -101.26 -66.369 -20.662 13.398 20.562 0.4629 -34.929 -71.067 -99.92 -121.73 -138.97 -148.53 -139.67 -100.94 -31.736 50.309 113.4 126.61 77.645 -18.078 -123.49 -198.44 -220.09 -193.26 -145.13 -108.3 -102.84 -127.86 -166.06 -196.57 -207.11 -198 -177.46 -153.21 -127.51 -98.555 -66.377 -37.196 -21.978 -29.453 -58.593 -96.545 -124.47 -128.14 -106.66 -73.264 -47.455 -43.253 -60.908 -87.339 -104.9 -102.8 -83.949 -62.987 -56.853 -73.919 -108.42 -143.48 -160.89 -151.59 -120.88 -85.434 -64.107 -67.804 -93.965 -128.25 -152.11 -151.92 -125.17 -81.033 -35.719 -5.4338 -0.28317 -21.454 -62.137 -111.04 -156.65 -190.63 -209.49 -214.33 -209.3 -199.23 -187.59 -175.35 -161.3 -143.7 -122.27 -99.601 -80.88 -71.969 -76.717 -94.915 -121.96 -150.37 -172.27 -181.63 -175.42 -153.81 -119.9 -79.506 -40.763 -12.818 -3.2171 -14.649 -42.837 -77.408 -106.2 -121.25 -123.2 -121.15 -127.56 -150.71 -189.17 -231.59 -262.34 -269.51 -250.82 -213.98 -171.84 -135.71 -110.96 -97.03 -90.757 -89.68 -92.778 -98.481 -102.42 -97.8 -79.178 -47.381 -11.803 12.459 11.707 -18.988 -72.643 -133.4 -183.85 -212.25 -215.89 -199.72 -172.41 -142.95 -119.36 -108.45 -114.71 -137.55 -168.84 -193.85 -197.05 -170.58 -119.98 -62.747 -19.183 -0.99763 -5.1132 -17.402 -24.184 -23.406 -26.929 -51.281 -102.75 -167.78 -216.96 -221.89 -174.63 -96.218 -27.192 -4.4541 -38.739 -107.3 -167.2 -181.47 -141.58 -72.489 -16.98 -9.7628 -57.403 -135.92 -206.15 -236.1 -216.52 -161.7 -97.84 -48.179 -24.083 -25.039 -43.879 -71.343 -97.152 -109.68 -98.204 -58.958 -0.99791 54.188 82.297 70.798 28.871 -15.686 -32.758 -9.9156 37.448 73.959 66.325 5.629 -85.234 -164.63 -197.62 -176.98 -126 -81.373 -68.517 -86.14 -110.37 -114.54 -89.835 -51.756 -27.987 -36.851 -72.421 -107.45 -112.29 -76.359 -16.679 32.588 42.484 7.9214 -49.941 -98.607 -115.55 -101.24 -75.722 -62.664 -72.895 -98.891 -122.75 -130.33 -120.51 -103.41 -90.263 -84.076 -78.691 -66.568 -48.23 -34.801 -40.731 -71.969 -119.09 -161.57 -180.86 -172.97 -150.86 -134.38 -134.75 -144.98 -143.92 -111.57 -45.093 35.794 98.544 116.28 83.012 15.962 -55.843 -108.28 -133.22 -137.96 -135.54 -134.32 -134.39 -131.8 -125.63 -120.87 -124.49 -138.25 -155.02 -162.49 -152.51 -128.75 -106.37 -102.87 -126.31 -169.3 -213.48 -241.6 -248.7 -244.31 -244.16 -257.22 -277.65 -287.45 -268.36 -214.78 -138.93 -65.11 -16.768 -5.1988 -26.343 -66.488 -111.64 -153.77 -190.47 -220.08 -237.42 -234.59 -206.46 -156.67 -99.235 -53.639 -36.02 -51.579 -92.52 -142.28 -183.24 -203.74 -201.51 -182.95 -159.69 -144.03 -144.38 -161.57 -187.31 -206.08 -201.25 -163.58 -97.977 -24.298 29.877 41.72 4.6244 -67.823 -148 -207.4 -229.7 -216.53 -183.58 -149.78 -126.48 -112.34 -96.272 -65.485 -13.601 55.664 130.67 198.05 249.37 285.08 314.29 350.53 405.59 484.05 581.03 684.7 782.59 868.9 948.33 1033.7 1137.9 1264.3 1402.3 1530.3 1626.4 1679.3 1693.1 1683.6 1668.1 1656.3 1648.5 1641.3 1634.3 1631.7 1635 1632.6 1595.6 1486.9 1281.8 988.42 653.24 345.02 123.37 9.2777 -24.647 -37.329 -85.344 -191.92 -336.98 -473.09 -555.93 -569.98 -534.33 -487.24 -461.83 -468.82 -496.07 -521.8 -530.12 -517.87 -490.19 -451.41 -400.39 -334.63 -258.77 -188.63 -145.2 -141.18 -169.93 -206.14 -219.58 -193.48 -135.06 -70.52 -27.673 -18.177 -31.55 -44.754 -40.029 -17.993 3.2011 1.5724 -32.4 -88.618 -143.98 -177.33 -181.67 -165.56 -143.91 -126.47 -112.89 -97.238 -76.974 -57.673 -49.054 -55.471 -69.454 -75 -59.467 -25.258 8.6169 18.051 -8.7102 -60.338 -107.29 -120.25 -90.007 -34.665 11.425 19.942 -13.149 -65.956 -106.63 -115.52 -97.931 -78.705 -83.069 -117.72 -165.71 -198.49 -195.81 -159.3 -109.98 -72.381 -57.329 -55.933 -48.69 -22.245 19.058 55.48 66.057 43.832 0.74898 -41.264 -66.052 -73.894 -79.148 -96.882 -128.88 -159.91 -167.49 -138.37 -79.665 -16.464 22.882 23.808 -6.5271 -45.313 -69.457 -69.558 -53.523 -38.535 -37.983 -52.645 -71.46 -80.116 -70.629 -45.431 -14.208 13.024 31.27 41.241 46.328 49.23 50.888 51.553 51.858 52.152 50.739 43.359 25.636 -2.5573 -34.325 -57.704 -62.212 -45.921 -17.811 6.9713 16.207 7.7929 -10.177 -26.511 -35.768 -41.935 -53.835 -75.762 -100.98 -114.09 -101.66 -63.562 -16.184 16.377 18.013 -7.4793 -37.238 -43.42 -11.641 48.637 109.07 139.64 126.78 80.406 25.886 -12.801 -26.79 -23.982 -18.894 -19.471 -21.215 -12.747 12.265 46.931 73.887 77.484 56.233 25.583 8.0863 17.593 49.021 81.564 93.476 77.9 48.157 28.412 36.351 70.493 111.51 136.7 136.93 123.35 118.51 138.18 177.23 210.66 210.06 164.56 91.495 28.558 11.999 54.779 138.96 226.89 283.5 294.9 272.07 238.81 213.72 198.94 182.44 150.68 101.16 45.714 2.6043 -16.058 -11.988 1.7541 10.975 10.332 5.8905 9.0831 27.374 58.955 95.104 127.54 154.32 179.26 205.67 229.95 241.23 228.44 190.01 138.45 95.395 79.168 93.196 123.31 146.41 145.15 118.99 84.294 63.67 71.653 106.2 151.05 186.51 200.98 195.86 181.48 168.39 160.76 156.08 150.4 143.87 141.88 150.87 172.49 200.89 225.77 238.79 238.49 229.81 218.68 205.98 185.81 149.81 94.646 26.982 -37.911 -83.348 -99.43 -86.718 -53.23 -7.4329 47.225 112.03 187.22 265.27 328.89 356.24 330.93 250.96 131.31 -1.4997 -119.42 -202.26 -242.1 -242.03 -211.7 -163 -107.74 -56.821 -19.421 -1.2878 -2.8303 -18.741 -40.223 -59.165 -72.088 -81.572 -94.281 -116.69 -150.74 -191.72 -229.06 -249.96 -244.28 -209.15 -151.56 -87.467 -36.79 -15.577 -28.354 -64.82 -103.69 -122.92 -111.49 -75.918 -37.118 -18.468 -31.857 -70.243 -111.71 -132.8 -122.7 -89.161 -52.318 -30.788 -29.701 -38.86 -42.053 -30.459 -10.107 2.3403 -7.5133 -39.887 -79.258 -105.04 -107.11 -94.612 -90.664 -115.73 -171.02 -234.21 -271.49 -258.67 -197.25 -114.18 -45.35 -13.898 -18.052 -36.43 -46.29 -41.12 -34.631 -48.387 -92.47 -153.99 -202.77 -211.06 -173.42 -112.4 -65.02 -58.837 -93.963 -143.55 -172.64 -162.37 -122.91 -86.191 -83.587 -123.92 -186.93 -236.31 -243.26 -204.4 -142.44 -90.14 -69.121 -78.139 -97.726 -106.58 -97.195 -79.66 -71.75 -83.376 -107.28 -122.89 -110.65 -66.469 -6.2301 42.967 58.822 36.603 -9.2432 -54.851 -81.008 -82.482 -67.613 -50.001 -38.908 -34.78 -31.912 -25.169 -15.364 -9.5127 -16.106 -38.838 -72.908 -106.08 -123.82 -115.91 -81.426 -30.244 19.766 49.11 44.709 6.606 -50.06 -99.97 -118.61 -94.852 -38.592 21.767 52.206 30.657 -40.005 -131.22 -201.61 -217.4 -169.56 -78.712 14.867 70.714 66.924 8.8581 -75.725 -151.53 -192.48 -192.19 -164.08 -132.31 -118.79 -132.64 -166.65 -201.79 -217.28 -201.25 -156.97 -101.51 -57.305 -40.812 -54.262 -85.052 -113.32 -123.45 -112.72 -92.012 -78.049 -82.357 -103.94 -130.38 -146.4 -143.84 -126.28 -105.27 -91.315 -86.257 -82.879 -71.858 -50.781 -28.104 -18.513 -32.54 -67.792 -108.43 -133.87 -131.03 -101.96 -61.559 -27.368 -8.6342 -2.3635 1.331 9.0817 17.294 13.803 -12.962 -64.166 -127.56 -183.78 -217.59 -226.03 -217.87 -205.17 -193.56 -178.64 -151.13 -106.45 -51.19 -1.0752 28.288 30.999 13.523 -11.59 -35.972 -61.481 -96.925 -147.68 -206.43 -253.15 -265.89 -235.8 -175.45 -113.85 -80.118 -86.232 -120.38 -155.46 -167.04 -148.67 -114.28 -86.658 -80.667 -93.395 -108.15 -108.96 -94.464 -80.494 -88.742 -129.48 -190.95 -243.77 -258.6 -225.23 -160.53 -99.24 -73.492 -94.243 -146.27 -199.29 -227.05 -221.69 -194.74 -165.59 -147.01 -137.96 -128.04 -108.91 -83.15 -63.239 -61.489 -78.702 -100.77 -106.74 -83.315 -35.621 13.761 37.706 21.137 -29.616 -90.959 -136.88 -154.63 -150.97 -145.28 -154.65 -181.2 -210.3 -220.41 -197.93 -147.01 -88.235 -47.156 -40.398 -67.616 -113.51 -157.41 -183.81 -187.8 -173.63 -149.26 -121.6 -95.141 -73.581 -61.313 -62.618 -78.834 -106.11 -136.32 -161.21 -177.11 -186.63 -195.78 -208.51 -222.66 -230.68 -224.86 -203.37 -172.39 -142.24 -120.2 -105.01 -87.911 -59.875 -20.607 17.546 34.402 13.456 -46.854 -129.57 -206.26 -250.92 -252.66 -219.65 -172.37 -130.85 -104.01 -87.422 -69.901 -43.891 -12.245 12.867 17.797 -3.5779 -45.666 -94.234 -134.29 -157.49 -164.5 -161.77 -155.47 -147.19 -133.78 -110.85 -76.873 -34.931 8.5475 46.586 73.649 85.735 79.506 52.379 4.6087 -57.747 -121.67 -170.07 -188.4 -171.82 -128.58 -76.862 -36.221 -18.057 -20.578 -31.151 -34.675 -22.93 0.64985 23.523 32.108 20.22 -7.3903 -38.479 -61.358 -72.227 -76.966 -86.142 -106.47 -134.43 -156.68 -157.5 -129.15 -78.538 -25.743 5.4739 -0.073368 -41.059 -100.69 -156.01 -189.76 -197.71 -187.42 -170.07 -151.47 -128.67 -94.376 -45.9 8.4587 50.874 63.361 39.18 -11.622 -66.945 -105.28 -118.22 -114.56 -112.97 -128.04 -159.18 -190.17 -199.98 -177.71 -131.12 -82.632 -55.002 -56.212 -74.111 -84.887 -70.049 -30.526 11.969 27.799 -1.5354 -70.51 -151.36 -209.52 -223 -193.57 -143.39 -100.1 -80.637 -83.889 -95.827 -102.27 -99.799 -97.436 -108.79 -140.84 -187.52 -232.49 -258.78 -258.62 -237 -207.34 -182.86 -169.57 -165.08 -162.7 -157.04 -147.03 -134.92 -123.08 -111.83 -100.15 -88.227 -79.33 -78.821 -90.783 -114.61 -144.22 -170.56 -185.74 -186.03 -172.1 -146.98 -114.1 -77.024 -40.758 -12.8 -1.854 -14.121 -49.304 -99.325 -151.28 -193.27 -219.62 -232.23 -237.42 -240.65 -242.94 -241.22 -231.95 -214.81 -193.45 -172.72 -154.59 -136.45 -113.35 -82.928 -48.971 -20.532 -6.2863 -7.694 -15.807 -14.516 11.223 67.182 146.92 236.14 321.49 398.27 472.01 553.27 649.21 757.85 868.78 969.76 1054.8 1127.9 1200.4 1283.2 1378.6 1477.4 1563.3 1621.5 1646.2 1644.6 1632.5 1627.6 1641.2 1674.3 1717.7 1755.2 1767.6 1736 1644.8 1485.4 1260.4 986.86 695.69 424.9 208.26 63.094 -16.487 -56.906 -93.262 -153.63 -247.19 -361.96 -472.84 -555.06 -595.44 -595.88 -568.54 -527.03 -479.94 -430.35 -380.16 -334.53 -301.96 -289.09 -294.2 -305 -303.94 -278.7 -231.19 -178.38 -143.2 -140.55 -167.04 -201.84 -218.49 -200.83 -152.93 -96.574 -57.797 -51.013 -70.753 -96.02 -104.1 -84.798 -46.114 -8.4373 8.4176 -3.2845 -36.022 -73.133 -99.29 -108.34 -104.26 -95.984 -90.689 -90.029 -90.989 -89.446 -83.239 -72.849 -60.19 -47.327 -36.268 -29.236 -28.057 -32.22 -37.216 -35.58 -21.533 3.0823 26.222 30 1.1618 -58.171 -127.13 -174.16 -173.41 -120.1 -35.157 44.981 87.806 82.009 41.938 -3.3707 -29.349 -30.878 -23.607 -31.233 -67.573 -125.41 -179.37 -200.69 -174.21 -106.82 -22.835 49.913 94.028 108.33 103.47 92.083 80.659 68.042 49.818 24.041 -6.3488 -35.592 -59.035 -75.125 -83.873 -83.662 -70.062 -38.79 8.7491 61.767 102.23 113.03 87.869 36.429 -19.229 -55.727 -60.753 -39.388 -10.45 5.0253 -3.6901 -30.899 -58.271 -66.062 -45.009 -1.9673 43.731 70.738 66.771 34.168 -12.659 -55.637 -81.951 -88.403 -79.456 -61.344 -36.937 -5.1116 35.142 79.371 115.85 129.86 112.29 67.018 11.393 -31.732 -46.579 -33.808 -10.167 2.2535 -9.1253 -38.077 -62.553 -58.863 -18.234 45.383 102.26 124.98 106.31 64.808 33.847 40.387 87.012 149.02 188.87 179.03 118.89 35.347 -32.982 -57.453 -33.63 19.745 74.625 110.21 121.75 117.72 109.81 104.22 100.18 94.874 89.183 88.405 97.382 114.6 131.19 136.65 127.35 110.71 100.9 108.47 131.7 156.65 167 156.53 134.77 120.61 127.74 152.84 176.11 175.36 144.49 102.49 84.871 121 211.86 323.49 402.32 404.24 320.07 181.73 45.423 -37.927 -47.284 2.2044 72.707 126.62 144.55 129.39 97.585 66.336 45.563 37.958 43.6 63.167 96.688 139.88 182.84 213.86 226.26 222.89 214.07 209.68 211.26 210.31 194.6 158.34 108.38 61.668 35.385 36.776 60.134 92.854 125.62 158.48 197.91 247.05 297.21 328.58 321.01 268.4 186.04 104.83 55.022 49.724 78.931 117.89 143.78 149.28 144.01 143.77 156.05 172.79 175.72 150.48 99.122 41.589 4.6562 5.4096 40.211 86.325 114.97 107.34 63.917 2.3275 -53.381 -84.736 -85.314 -59.809 -18.674 27.049 68.136 97.547 111.03 108.91 97.516 87.48 88.231 101.2 116.66 117.72 90.307 33.513 -36.659 -93.475 -112.85 -86.361 -26.421 39.429 81.576 81.497 38.459 -32.431 -108.2 -167.12 -195.16 -188.62 -153.87 -105.09 -60.229 -34.974 -36.208 -57.998 -83.528 -93.579 -77.791 -41.946 -5.8072 8.4702 -9.2102 -48.996 -85.832 -94.908 -68.364 -22.108 12.624 8.4875 -39.912 -110.89 -167.39 -178.6 -138.27 -68.479 -6.6464 15.681 -10.492 -68.957 -129.83 -166.95 -170.28 -147.13 -113.68 -84.057 -64.131 -52.41 -45.097 -40.081 -36.958 -34.368 -28.431 -14.857 6.415 28.162 38.002 25.467 -10.404 -58.52 -100.69 -121.35 -115.76 -91.346 -61.779 -38.146 -23.667 -15.092 -8.7433 -5.5757 -10.718 -27.733 -52.629 -73.436 -77.107 -59.425 -30.363 -9.712 -14.633 -47.122 -90.466 -118.21 -110.55 -67.549 -9.9301 33.456 43.592 22.774 -7.9584 -23.589 -11.991 18.397 44.917 46.225 16.184 -33.064 -80.125 -108.36 -114.82 -108.6 -100.86 -95.25 -85.975 -64.866 -31.208 4.0975 24.157 17.872 -10.961 -44.628 -62.678 -55.696 -31.604 -9.5342 -5.2757 -18.801 -33.359 -27.56 7.6337 59.26 97.788 95.126 43.69 -36.332 -107.05 -134.43 -107.98 -46.163 15.436 45.495 34.388 -2.6322 -37.325 -46.907 -27.243 6.6565 31.707 31.351 4.535 -35.427 -69.89 -85.345 -79.287 -59.379 -38.011 -26.198 -29.679 -47.845 -74.577 -100.19 -114.36 -109.97 -86.947 -53.688 -24.389 -12.464 -23.294 -50.805 -80.608 -98.351 -98.209 -85.862 -73.746 -71.607 -78.885 -84.489 -74.513 -42.828 2.9189 44.437 63.448 52.918 21.314 -13.063 -33.87 -36.694 -30.581 -30.38 -45.524 -73.176 -100.4 -113.52 -107.6 -89.3 -70.943 -60.491 -55.031 -42.959 -13.628 32.474 80.796 109.92 104.58 65.764 10.698 -37.67 -64.852 -73.102 -78.135 -96.521 -132.54 -173.77 -198.8 -191.91 -154.73 -106.46 -72.256 -67.284 -87.191 -111.56 -118.02 -97.445 -59.959 -27.716 -19.575 -38.368 -69.601 -92.381 -94.677 -81.906 -72.425 -82.887 -113.92 -146.86 -154.91 -121.87 -55.771 12.53 46.217 24.603 -43.557 -124.35 -178.2 -182.35 -142.51 -86.633 -45.741 -34.552 -44.291 -51.536 -36.248 3.5331 50.027 77.564 69.393 28 -27.577 -74.843 -101.92 -113.04 -122.32 -140.97 -167.28 -186.66 -181.53 -144.22 -83.912 -22.892 15.511 19.555 -5.4854 -41.975 -71.084 -83.242 -81.751 -78.263 -83.853 -101.64 -125.19 -142.96 -145.44 -130.59 -104.74 -78.951 -63.418 -62.675 -73.934 -88.855 -97.708 -94.053 -77.936 -56.225 -39.741 -38.219 -55.294 -85.929 -117.8 -136.23 -130.34 -97.587 -44.542 16.078 70.191 106.52 118.63 104.83 67.336 11.649 -53.652 -117.57 -168.7 -198.34 -203.47 -187.8 -160.07 -130.31 -105.98 -89.666 -79.173 -69.421 -55.079 -32.978 -3.9049 26.521 48.445 50.52 24.677 -28.733 -98.348 -164.31 -205.93 -211.3 -183.52 -139.5 -101.33 -84.942 -92.607 -113.73 -133.11 -140.9 -137.71 -131.83 -131.15 -136.39 -140.61 -135.5 -118.82 -96.895 -79.036 -68.064 -54.568 -21.127 44.468 135.28 221.19 260.17 220.26 100.12 -65.181 -217.82 -303.96 -299.13 -218.38 -106.39 -14.054 25.185 7.1273 -47.202 -106.42 -144.84 -151.64 -131.09 -96.546 -63.431 -44.061 -44.917 -65.38 -97.772 -129.58 -148.45 -148.27 -133.03 -114.82 -106.38 -112.12 -124 -125.88 -104.39 -59.439 -6.8077 29.718 32.208 -0.48575 -52.061 -98.895 -124.25 -127.15 -120.29 -119.14 -130.22 -146.88 -155.06 -144.3 -115.79 -81.663 -56.538 -47.87 -52.277 -60.102 -64.145 -65.449 -71.572 -88.888 -115.26 -139.25 -147.06 -132.13 -100.09 -65.126 -40.086 -27.768 -19.927 -4.9886 21.257 50.173 64.602 50.426 7.2743 -49.443 -97.06 -119.21 -115.31 -99.717 -91.3 -100.69 -123.72 -144.89 -148 -126.45 -86.641 -43.284 -10.649 4.0039 1.2588 -14.327 -38.599 -68.995 -102.23 -131.47 -146.52 -138.08 -103.59 -50.58 5.3585 47.112 63.517 53.666 26.143 -5.7146 -29.63 -38.676 -32.979 -19.097 -7.6561 -9.525 -31.013 -69.574 -112.53 -140.88 -137.79 -97.998 -32.646 34.367 77.525 82.592 53.7 10.255 -24.564 -36.691 -27.689 -11.485 -4.2935 -14.757 -40.364 -71.241 -97.248 -112.73 -116.19 -106.8 -82.373 -41.683 10.574 61.081 91.688 88.882 52.865 -0.9072 -50.281 -80.189 -92.136 -101.94 -126.29 -167.26 -206.35 -213.93 -169.06 -76.686 30.374 107.73 124.54 81.667 10.753 -45.456 -59.072 -32.694 4.9444 19.729 -4.8492 -57.487 -107.58 -125.82 -102.75 -53.431 -6.4713 14.194 2.3768 -29.966 -63.351 -83.784 -89.389 -87.758 -88.056 -94.774 -107.19 -123.17 -142.32 -164.93 -187.81 -201.55 -193.7 -157.04 -97.48 -34.63 7.1878 12.778 -14.284 -53.325 -79.325 -78.765 -58.07 -38.901 -43.367 -79.068 -133.89 -183.67 -207.17 -198.03 -166.24 -129.04 -98.697 -75.991 -53.565 -25.633 3.9632 21.946 14.264 -22.955 -78.161 -128.86 -153.15 -140.84 -97.513 -39.699 14.623 53.774 74.129 76.575 61.95 29.656 -19.74 -80.791 -142.27 -190.73 -216.55 -218.2 -202 -177.55 -152.41 -129.64 -109.38 -92.396 -81.834 -81.602 -92.451 -109.42 -123.42 -126.53 -117.45 -102.7 -92.124 -91.234 -95.736 -92.44 -66.638 -11.525 66.456 150.05 220.25 266.6 292.72 313.83 348.2 407.54 491.49 588.87 683.99 764.44 826.49 876.2 926.58 992.5 1085.2 1207.8 1353.6 1506.7 1646.9 1755.5 1822 1847 1841.2 1820.2 1798.3 1783.6 1777.2 1774.9 1769.3 1751 1708.5 1627.5 1494.6 1302.7 1057.3 779.43 501.28 256.34 67.312 -61.77 -145.15 -207.01 -269.62 -343.83 -426.37 -504.07 -561.75 -589.36 -585.14 -554.58 -506.89 -451.41 -395.23 -342.42 -294.03 -248.99 -205.53 -163.14 -124.17 -93.679 -77.204 -76.968 -89.063 -103.84 -110.17 -101.47 -79.853 -55.189 -39.139 -37.49 -45.801 -51.637 -42.492 -14.581 23.326 54.026 61.845 42.339 5.4493 -30.159 -48.195 -44.211 -27.256 -12.554 -9.985 -16.142 -15.63 8.6569 62.584 133.6 194.52 216.77 185.48 107.62 8.3128 -82.389 -144.19 -174.28 -184.04 -187.96 -192.36 -191.59 -173.64 -131.05 -69.283 -6.2876 36.755 47.79 31.216 5.1904 -9.625 -2.792 19.839 40.645 42.44 20.5 -13.42 -37.789 -34.629 -1.1633 47.511 86.359 94.157 64.83 9.9926 -48.222 -89.178 -103.44 -95.12 -76.724 -60.805 -53.716 -54.571 -58.588 -61.425 -61.321 -58.279 -52.077 -41.581 -26.347 -9.0676 3.7763 4.6292 -10.129 -36.213 -61.812 -73.075 -61.926 -31.438 5.0239 30.972 36.334 23.631 6.8203 3.1878 22.962 62.832 107.32 137.28 140.46 117.95 82.682 51.149 33.634 28.974 27.166 18.038 0.25267 -15.539 -12.11 23.108 87.738 161.97 216.46 226.96 187.67 115.25 40.801 -6.3669 -13.933 7.8418 33.39 37.618 10.829 -35.993 -78.405 -93.518 -73.494 -29.433 16.223 43.517 46.156 33.325 21.731 23.681 39.227 57.16 63.575 51.776 26.818 2.0072 -9.7547 -3.6313 15.464 37.686 55.568 68.449 81.11 98.172 118.84 136.11 141.18 