0.017571 0.017617 0.017664 0.01771 0.017757 0.017804 0.01785 0.017897 0.017943 0.01799 0.018037 0.018083 0.01813 0.018176 0.018223 0.01827 0.018316 0.018363 0.018409 0.018456 0.018503 0.018549 0.018596 0.018643 0.018689 0.018736 0.018782 0.018829 0.018876 0.018922 0.018969 0.019015 0.019062 0.019109 0.019155 0.019202 0.019248 0.019295 0.019342 0.019388 0.019435 0.019481 0.019528 0.019575 0.019621 0.019668 0.019714 0.019761 0.019808 0.019854 0.019901 0.019947 0.019994 0.020041 0.020087 0.020134 0.020181 0.020227 0.020274 0.02032 0.020367 0.020414 0.02046 0.020507 0.020553 0.0206 0.020647 0.020693 0.02074 0.020786 0.020833 0.02088 0.020926 0.020973 0.021019 0.021066 0.021113 0.021159 0.021206 0.021252 0.021299 0.021346 0.021392 0.021439 0.021485 0.021532 0.021579 0.021625 0.021672 0.021719 0.021765 0.021812 0.021858 0.021905 0.021952 0.021998 0.022045 0.022091 0.022138 0.022185 0.022231 0.022278 0.022324 0.022371 0.022418 0.022464 0.022511 0.022557 0.022604 0.022651 0.022697 0.022744 0.02279 0.022837 0.022884 0.02293 0.022977 0.023024 0.02307 0.023117 0.023163 0.02321 0.023257 0.023303 0.02335 0.023396 0.023443 0.02349 0.023536 0.023583 0.023629 0.023676 0.023723 0.023769 0.023816 0.023862 0.023909 0.023956 0.024002 0.024049 0.024095 0.024142 0.024189 0.024235 0.024282 0.024328 0.024375 0.024422 0.024468 0.024515 0.024562 0.024608 0.024655 0.024701 0.024748 0.024795 0.024841 0.024888 0.024934 0.024981 0.025028 0.025074 0.025121 0.025167 0.025214 0.025261 0.025307 0.025354 0.0254 0.025447 0.025494 0.02554 0.025587 0.025633 0.02568 0.025727 0.025773 0.02582 0.025866 0.025913 0.02596 0.026006 0.026053 0.0261 0.026146 0.026193 0.026239 0.026286 0.026333 0.026379 0.026426 0.026472 0.026519 0.026566 0.026612 0.026659 0.026705 0.026752 0.026799 0.026845 0.026892 0.026938 0.026985 0.027032 0.027078 0.027125 0.027171 0.027218 0.027265 0.027311 0.027358 0.027404 0.027451 0.027498 0.027544 0.027591 0.027638 0.027684 0.027731 0.027777 0.027824 0.027871 0.027917 0.027964 0.02801 0.028057 0.028104 0.02815 0.028197 0.028243 0.02829 0.028337 0.028383 0.02843 0.028476 0.028523 0.02857 0.028616 0.028663 0.028709 0.028756 0.028803 0.028849 0.028896 0.028943 0.028989 0.029036 0.029082 0.029129 0.029176 0.029222 0.029269 0.029315 0.029362 0.029409 0.029455 0.029502 0.029548 0.029595 0.029642 0.029688 0.029735 0.029781 0.029828 0.029875 0.029921 0.029968 0.030014 0.030061 0.030108 0.030154 0.030201 0.030247 0.030294 0.030341 0.030387 0.030434 0.030481 0.030527 0.030574 0.03062 0.030667 0.030714 0.03076 0.030807 0.030853 0.0309 0.030947 0.030993 0.03104 0.031086 0.031133 0.03118 0.031226 0.031273 0.031319 0.031366 0.031413 0.031459 0.031506 0.031552 0.031599 0.031646 0.031692 0.031739 0.031785 0.031832 0.031879 0.031925 0.031972 0.032019 0.032065 0.032112 0.032158 0.032205 0.032252 0.032298 0.032345 0.032391 0.032438 0.032485 0.032531 0.032578 0.032624 0.032671 0.032718 0.032764 0.032811 0.032857 0.032904 0.032951 0.032997 0.033044 0.03309 0.033137 0.033184 0.03323 0.033277 0.033323 0.03337 0.033417 0.033463 0.03351 0.033557 0.033603 0.03365 0.033696 0.033743 0.03379 0.033836 0.033883 0.033929 0.033976 0.034023 0.034069 0.034116 0.034162 0.034209 0.034256 0.034302 0.034349 0.034395 0.034442 0.034489 0.034535 0.034582 0.034628 0.034675 0.034722 0.034768 0.034815 0.034862 0.034908 0.034955 0.035001 0.035048 0.035095 0.035141 0.035188 0.035234 0.035281 0.035328 0.035374 0.035421 0.035467 0.035514 0.035561 0.035607 0.035654 0.0357 0.035747 0.035794 0.03584 0.035887 0.035933 0.03598 0.036027 0.036073 0.03612 0.036166 0.036213 0.03626 0.036306 0.036353 0.0364 0.036446 0.036493 0.036539 0.036586 0.036633 0.036679 0.036726 0.036772 0.036819 0.036866 0.036912 0.036959 0.037005 0.037052 0.037099 0.037145 0.037192 0.037238 0.037285 0.037332 0.037378 0.037425 0.037471 0.037518 0.037565 0.037611 0.037658 0.037704 0.037751 0.037798 0.037844 0.037891 0.037938 0.037984 0.038031 0.038077 0.038124 0.038171 0.038217 0.038264 0.03831 0.038357 0.038404 0.03845 0.038497 0.038543 0.03859 0.038637 0.038683 0.03873 0.038776 0.038823 0.03887 0.038916 0.038963 0.039009 0.039056 0.039103 0.039149 0.039196 0.039242 0.039289 0.039336 0.039382 0.039429 0.039476 0.039522 0.039569 0.039615 0.039662 0.039709 0.039755 0.039802 0.039848 0.039895 0.039942 0.039988 0.040035 0.040081 0.040128 0.040175 0.040221 0.040268 0.040314 0.040361 0.040408 0.040454 0.040501 0.040547 0.040594 0.040641 0.040687 0.040734 0.04078 0.040827 0.040874 0.04092 0.040967 0.041014 0.04106 0.041107 0.041153 0.0412 0.041247 0.041293 0.04134 0.041386 0.041433 0.04148 0.041526 0.041573 0.041619 0.041666 0.041713 0.041759 0.041806 0.041852 0.041899 0.041946 0.041992 0.042039 0.042085 0.042132 0.042179 0.042225 0.042272 0.042319 0.042365 0.042412 0.042458 0.042505 0.042552 0.042598 0.042645 0.042691 0.042738 0.042785 0.042831 0.042878 0.042924 0.042971 0.043018 0.043064 0.043111 0.043157 0.043204 0.043251 0.043297 0.043344 0.04339 0.043437 0.043484 0.04353 0.043577 0.043623 0.04367 0.043717 0.043763 0.04381 0.043857 0.043903 0.04395 0.043996 0.044043 0.04409 0.044136 0.044183 0.044229 0.044276 0.044323 0.044369 0.044416 0.044462 0.044509 0.044556 0.044602 0.044649 0.044695 0.044742 0.044789 0.044835 0.044882 0.044928 0.044975 0.045022 0.045068 0.045115 0.045161 0.045208 0.045255 0.045301 0.045348 0.045395 0.045441 0.045488 0.045534 0.045581 0.045628 0.045674 0.045721 0.045767 0.045814 0.045861 0.045907 0.045954 0.046 0.046047 0.046094 0.04614 0.046187 0.046233 0.04628 0.046327 0.046373 0.04642 0.046466 0.046513 0.04656 0.046606 0.046653 0.046699 0.046746 0.046793 0.046839 0.046886 0.046933 0.046979 0.047026 0.047072 0.047119 0.047166 0.047212 0.047259 0.047305 0.047352 0.047399 0.047445 0.047492 0.047538 0.047585 0.047632 0.047678 0.047725 0.047771 0.047818 0.047865 0.047911 0.047958 0.048004 0.048051 0.048098 0.048144 0.048191 0.048238 0.048284 0.048331 0.048377 0.048424 0.048471 0.048517 0.048564 0.04861 0.048657 0.048704 0.04875 0.048797 0.048843 0.04889 0.048937 0.048983 0.04903 0.049076 0.049123 0.04917 0.049216 0.049263 0.049309 0.049356 0.049403 0.049449 0.049496 0.049542 0.049589 0.049636 0.049682 0.049729 0.049776 0.049822 0.049869 0.049915 0.049962 0.050009 0.050055 0.050102 0.050148 0.050195 0.050242 0.050288 0.050377 0.050509 0.050683 0.050899 0.051158 0.051459 0.051803 0.052189 0.052618 0.053089 0.053603 0.054159 0.054757 0.055398 0.056082 0.056807 0.057576 0.058386 0.05924 0.060135 0.061073 0.062054 0.063077 0.064142 0.06525 0.066358 0.067466 0.068574 0.069682 0.07079 0.071898 0.073006 0.074114 0.075222 0.076329 0.077437 0.078545 0.079653 0.080761 0.081869 0.082977 0.084085 0.085193 0.086301 0.087409 0.088517 0.089624 0.090732 0.09184 0.092948 0.094056 0.095164 0.096272 0.09738 0.098488 0.099596 0.1007 0.10181 0.10292 0.10403 0.10514 0.10624 0.10735 0.10846 0.10957 0.11067 0.11178 0.11289 0.114 0.11511 0.11621 0.11732 0.11843 0.11954 0.12065 0.12175 0.12286 0.12397 0.12508 0.12619 0.12729 0.1284 0.12951 0.13062 0.13173 0.13283 0.13394 0.13505 0.13616 0.13726 0.13837 0.13948 0.14059 0.1417 0.1428 0.14391 0.14502 0.14613 0.14724 0.14834 0.14945 0.15056 0.15167 0.15278 0.15388 0.15499 0.1561 0.15721 0.15832 0.15942 0.16053 0.16164 0.16275 0.16385 0.16496 0.16607 0.16718 0.16829 0.16939 0.1705 0.17161 0.17272 0.17383 0.17493 0.17604 0.17715 0.17826 0.17937 0.18047 0.18158 0.18269 0.1838 0.18491 0.18601 0.18712 0.18823 0.18934 0.19044 0.19155 0.19266 0.19377 0.19488 0.19598 0.19709 0.1982 0.19931 0.20042 0.20152 0.20263 0.20374 0.20485 0.20596 0.20706 0.20817 0.20928 0.21039 0.2115 0.2126 0.21371 0.21482 0.21593 0.21703 0.21814 0.21925 0.22036 0.22147 0.22257 0.22368 0.22479 0.2259 0.22701 0.22811 0.22922 0.23033 0.23144 0.23255 0.23365 0.23476 0.23587 0.23698 0.23809 0.23919 0.2403 0.24141 0.24252 0.24362 0.24473 0.24584 0.24695 0.24806 0.24916 0.25027 0.25138 0.25249 0.2536 0.2547 0.25581 0.25692 0.25803 0.25914 0.26024 0.26135 0.26246 0.26357 0.26468 0.26578 0.26689 0.268 0.26911 0.27021 0.27132 0.27243 0.27354 0.27465 0.27575 0.27686 0.27797 0.27908 0.28019 0.28129 0.2824 0.28351 0.28462 0.28573 0.28683 0.28794 0.28905 0.29016 0.29126 0.29237 0.29348 0.29459 0.2957 0.2968 0.29791 0.29902 0.30013 0.30124 0.30234 0.30345 0.30456 0.30567 0.30678 0.30788 0.30899 0.3101 0.31121 0.31232 0.31342 0.31453 0.31564 0.31675 0.31785 0.31896 0.32007 0.32118 0.32229 0.32339 0.3245 0.32561 0.32672 0.32783 0.32893 0.33004 0.33115 0.33226 0.33337 0.33447 0.33558 0.33669 0.3378 0.33891 0.34001 0.34112 0.34223 0.34334 0.34444 0.34555 0.34666 0.34777 0.34888 0.34998 0.35109 0.3522 0.35331 0.35442 0.35552 0.35663 0.35774 0.35885 0.35996 0.36106 0.36217 0.36328 0.36439 0.3655 0.3666 0.36771 0.36882 0.36993 0.37103 0.37214 0.37325 0.37436 0.37547 0.37657 0.37768 0.37879 0.3799 0.38101 0.38211 0.38322 0.38433 0.38544 0.38655 0.38765 0.38876 0.38987 0.39098 0.39209 0.39319 0.3943 0.39541 0.39652 0.39762 0.39873 0.39984 0.40095 0.40206 0.40316 0.40427 0.40538 0.40649 0.4076 0.4087 0.40981 0.41092 0.41203 0.41314 0.41424 0.41535 0.41646 0.41757 0.41868 0.41978 0.42089 0.422 0.42311 0.42421 0.42532 0.42643 0.42754 0.42865 0.42975 0.43086 0.43197 0.43308 0.43419 0.43529 0.4364 0.43751 0.43862 0.43973 0.44083 0.44194 0.44305 0.44416 0.44527 0.44637 0.44748 0.44859 0.4497 0.4508 0.45191 0.45302 0.45413 0.45524 0.45634 0.45745 0.45856 0.45967 0.46078 0.46188 0.46299 0.4641 0.46521 0.46632 0.46742 0.46853 0.46964 0.47075 0.47186 0.47296 0.47407 0.47518 0.47629 0.47739 0.4785 0.47961 0.48072 0.48183 0.48293 0.48404 0.48515 0.48626 0.48737 0.48847 0.48958 0.49069 0.4918 0.49291 0.49401 0.49512 0.49623 0.49734 0.49845 0.49955 0.50066 0.50177 0.50288 0.50398 0.50509 0.5062 0.50731 0.50842 0.50952 0.51063 0.51174 0.51285 0.51396 0.51506 0.51617 0.51728 0.51839 0.5195 0.5206 0.52162 0.52255 0.5234 0.52415 0.52481 0.52539 0.52588 0.52628 0.52659 0.52681 0.52695 0.52699 0.52695 0.52682 0.5266 0.52629 0.52589 0.52541 0.52483 0.52417 0.52342 0.52258 0.52165 0.52063 0.51953 0.51842 0.51732 0.51621 0.51511 0.514 0.5129 0.51179 0.51069 0.50958 0.50847 0.50737 0.50626 0.50516 0.50405 0.50295 0.50184 0.50074 0.49963 0.49853 0.49742 0.49632 0.49521 0.4941 0.493 0.49189 0.49079 0.48968 0.48858 0.48747 0.48637 0.48526 0.48416 0.48305 0.48195 0.48084 0.47973 0.47863 0.47752 0.47642 0.47531 0.47421 0.4731 0.472 0.47089 0.46979 0.46868 0.46758 0.46647 0.46536 0.46426 0.46315 0.46205 0.46094 0.45984 0.45873 0.45763 0.45652 0.45542 0.45431 0.45321 0.4521 0.45099 0.44989 0.44878 0.44768 0.44657 0.44547 0.44436 0.44326 0.44215 0.44105 0.43994 0.43884 0.43773 0.43662 0.43552 0.43441 0.43331 0.4322 0.4311 0.42999 0.42889 0.42778 0.42668 0.42557 0.42447 0.42336 0.42225 0.42115 0.42004 0.41894 0.41783 0.41673 0.41562 0.41452 0.41341 0.41231 0.4112 0.4101 0.40899 0.40789 0.40678 0.40567 0.40457 0.40346 0.40236 0.40125 0.40015 0.39904 0.39794 0.39683 0.39573 0.39462 0.39352 0.39241 0.3913 0.3902 0.38909 0.38799 0.38688 0.38578 0.38467 0.38357 0.38246 0.38136 0.38025 0.37915 0.37804 0.37693 0.37583 0.37472 0.37362 0.37251 0.37141 0.3703 0.3692 0.36809 0.36699 0.36588 0.36478 0.36367 0.36256 0.36146 0.36035 0.35925 0.35814 0.35704 0.35593 0.35483 0.35372 0.35262 0.35151 0.35041 0.3493 0.34819 0.34709 0.34598 0.34488 0.34377 0.34267 0.34156 0.34046 0.33935 0.33825 0.33714 0.33604 0.33493 0.33382 0.33272 0.33161 0.33051 0.3294 0.3283 0.32719 0.32609 0.32498 0.32388 0.32277 0.32167 0.32056 0.31945 0.31835 0.31724 0.31614 0.31503 0.31393 0.31282 0.31172 0.31061 0.30951 0.3084 0.3073 0.30619 0.30508 0.30398 0.30287 0.30177 0.30066 0.29956 0.29845 0.29735 0.29624 0.29514 0.29403 0.29293 0.29182 0.29071 0.28961 0.2885 0.2874 0.28629 0.28519 0.28408 0.28298 0.28187 0.28077 0.27966 0.27856 0.27745 0.27634 0.27524 0.27413 0.27303 0.27192 0.27082 0.26971 0.26861 0.2675 0.2664 0.26529 0.26419 0.26308 0.26197 0.26087 0.25976 0.25866 0.25755 0.25645 0.25534 0.25424 0.25313 0.25203 0.25092 0.24982 0.24871 0.24761 0.2465 0.24539 0.24429 0.24318 0.24208 0.24097 0.23987 0.23876 0.23766 0.23655 0.23545 0.23434 0.23324 0.23213 0.23102 0.22992 0.22881 0.22771 0.2266 0.2255 0.22439 0.22329 0.22218 0.22108 0.21997 0.21887 0.21776 0.21665 0.21555 0.21444 0.21334 0.21223 0.21113 0.21002 0.20892 0.20781 0.20671 0.2056 0.2045 0.20339 0.20228 0.20118 0.20007 0.19897 0.19786 0.19676 0.19565 0.19455 0.19344 0.19234 0.19123 0.19013 0.18902 0.18791 0.18681 0.1857 0.1846 0.18349 0.18239 0.18128 0.18018 0.17907 0.17797 0.17686 0.17576 0.17465 0.17354 0.17244 0.17133 0.17023 0.16912 0.16802 0.16691 0.16581 0.1647 0.1636 0.16249 0.16139 0.16028 0.15917 0.15807 0.15696 0.15586 0.15475 0.15365 0.15254 0.15144 0.15033 0.14923 0.14812 0.14702 0.14591 0.1448 0.1437 0.14259 0.14149 0.14038 0.13928 0.13817 0.13707 0.13596 0.13486 0.13375 0.13265 0.13154 0.13043 0.12933 0.12822 0.12712 0.12601 0.12491 0.1238 0.1227 0.12159 0.12049 0.11938 0.11828 0.11717 0.11606 0.11496 0.11385 0.11275 0.11164 0.11054 0.10943 0.10833 0.10722 0.10612 0.10501 0.10391 0.1028 0.10169 0.10059 0.099484 0.098379 0.097273 0.096168 0.095063 0.093957 0.092852 0.091746 0.090641 0.089536 0.08843 0.087325 0.08622 0.085114 0.084009 0.082903 0.081798 0.080693 0.079587 0.078482 0.077377 0.076271 0.075166 0.07406 0.072955 0.07185 0.070744 0.069639 0.068534 0.067428 0.066323 0.065217 0.064112 0.063043 0.062009 0.061011 0.06005 0.059124 0.058234 0.05738 0.056562 0.05578 0.055033 0.054323 0.053649 0.05301 0.052408 0.051841 0.05131 0.050815 0.050356 0.049933 0.049546 0.049195 0.04888 0.0486 0.048357 0.048149 0.047942 0.047734 0.047527 0.047319 0.047112 0.046904 0.046697 0.046489 0.046282 0.046074 0.045866 0.045659 0.045451 0.045244 0.045036 0.044829 0.044621 0.044414 0.044206 0.043999 0.043791 0.043584 0.043376 0.043168 0.042961 0.042753 0.042546 0.042338 0.042131 0.041923 0.041716 0.041508 0.041301 0.041093 0.040886 0.040678 0.04047 0.040263 0.040055 0.039848 0.03964 0.039433 0.039225 0.039018 0.03881 0.038603 0.038395 0.038187 0.03798 0.037772 0.037565 0.037357 0.03715 0.036942 0.036735 0.036527 0.03632 0.036112 0.035905 0.035697 0.035489 0.035282 0.035074 0.034867 0.034659 0.034452 0.034244 0.034037 0.033829 0.033622 0.033414 0.033207 0.032999 0.032791 0.032584 0.032376 0.032169 0.031961 0.031754 0.031546 0.031339 0.031131 0.030924 0.030716 0.030508 0.030301 0.030093 0.029886 0.029678 0.029471 0.029263 0.029056 0.028848 0.028641 0.028433 0.028226 0.028018 0.02781 0.027603 0.027395 0.027188 0.02698 0.026773 0.026565 0.026358 0.02615 0.025943 0.025735 0.025527 0.02532 0.025112 0.024905 0.024697 0.02449 0.024282 0.024075 0.023867 0.02366 0.023452 0.023245 0.023037 0.022829 0.022622 0.022414 0.022207 0.021999 0.021792 0.021584 0.021377 0.021169 0.020962 0.020754 0.020547 0.020339 0.020131 0.019924 0.019716 0.019509 0.019301 0.019094 0.018886 0.018679 0.018471 0.018264 0.018056 0.017848 0.017641 0.017433 0.017226 0.017018 0.016811 0.016603 0.016396 0.016188 0.015981 0.015773 0.015566 0.015358 0.01515 0.014943 0.014735 0.014528 0.01432 0.014113 0.013905 0.013698 0.01349 0.013283 0.013075 0.012868 0.01266 0.012452 0.012245 0.012037 0.01183 0.011622 0.011415 0.011207 0.011 0.010792 0.010585 0.010377 0.010169 0.009962 0.0097544 0.0095469 0.0093393 0.0091318 0.0089242 0.0087167 0.0085092 0.0083016 0.0080941 0.0078865 0.007679 0.0074715 0.0072639 0.0070564 0.0068488 0.0066413 0.0064338 0.0062262 0.0060187 0.0058111 0.0056036 0.0053961 0.0051885 0.004981 0.0047734 0.0045659 0.0043584 0.0041508 0.0039433 0.0037357 0.0035282 0.0033207 0.0031131 0.0029056 0.002698 0.0024905 0.0022912 0.0021003 0.0019177 0.0017433 0.0015773 0.0014196 0.0012701 0.001129 0.0009962 0.00087167 0.00075545 0.00064753 0.00054791 0.00045659 0.00037357 0.00029886 0.00023245 0.00017433 0.00012452 8.3016e-05 4.981e-05 2.4905e-05 8.3016e-06 0 0 0 0 0 0 0 0 0 0 0 0 0 0 0 0 0 0 0 0 0 0 0 0 0 0 0 0 0 0 0 0 0 0 0 0 0 0 0 0 0 0 0 0 0 0 0 0 0 0 0 0 0 0 0 0 0 0 0 0 0 0 0 0 0 0 0 0 0 0 0 0 0 0 0 0 0 0 0 0 0 0 0 0 0 0 0 0 0 0 0 0 0 0 0 0 0 0 0 0 0 0 0 0 0 0 0 0 0 0 0 0 0 0 0 0 0 0 0 0 0 0 0 0 0 0 0 0 0 0 0 0 0 0 0 0 0 0 0 0 0 0 0 0 0 0 0 0 0 0 0 0 0 0 0 0 0 0 0 0 0 0 0 0 0 0 0 0 0 0 0 0 0 0 0 0 0 0 0 0 0 0 0 0 0 0 0 0 0 0 0 0 0 0 0 0 0 0 0 0 0 0 0 0 0 0 0 0 0 0 0 0 0 0 0 0 0 0 0 0 0 0 0 0 0 0 0 0 0 0 0 0 0 0 0 0 0 0 0 0 0 0 0 0 0 0 0 0 0 0 0 0 0 0 0 0 0 0 0 0 0 0 0 0 0 0 0 0 0 0 0 0 0 0 0 0 0 0 0 0 0 0 0 0 0 0 0 0 0 0 0 0 0 0 0 0 0 0 0 0 0 0 0 0 0 0 0 0 0 0 0 0 0 0 0 0 0 0 0 0 0 0 0 0 0 0 0 0 0 0 0 0 0 0 0 0 0 0 0 0 0 0 0 0 0 0 0 0 0 0 0 0 0 0 0 0 0 0 0 0 0 0 0 0 0 0 0 0 0 0 0 0 0 0 0 0 0 0 0 0 0 0 0 0 0 0 0 0 0 0 0 0 0 0 0 0 0 0 0 0 0 0 0 0 0 0 0 0 0 0 0 0 0 0 0 0 0 0 0 0 0 0 0 0 0 0 0 0 0 0 0 0 0 0 0 0 0 0 0 0 0 0 0 0 0 0 0 0 0 0 0 0 0 0 0 0 0 0 0 0 0 0 0 0 0 0 0 0 0 0 0 0 0 0 0 0 0 0 0 0 0 0 0 0 0 0 0 0 0 0 0 0 0 0 0 0 0 0 0 0 0 0 0 0 0 0 0 0 0 0 0 0 0 0 0 0 0 0 0 0 0 0 0 0 0 0 0 0 0 0 0 0 0 0 0 0 0 0 0 0 0 0 0 0 0 0 0 0 0 0 0 0 0 0 0 0 0 0 0 0 0 0 0 0 0 0 0 0 0 0 0 0 0 0 0 0 0 0 0 0 0 0 0 0 0 0 0 0 0 0 0 0 0 0 0 0 0 0 0 0 0 0 0 0 0 0 0 0 0 0 0 0 0 0 0 0 0 0 0 0 0 0 0 0 0 0 0 0 0 0 0 0 0 0 0 0 0 0 0 0 0 0 0 0 0 0 0 0 0 0 0 0 0 0 0 0 0 0 0 0 0 0 0 0 0 0 0 0 0 0 0 0 0 0 0 0 0 0 0 0 0 0 0 0 0 0 0 0 0 0 0 0 0 0 0 0 0 0 0 0 0 0 0 0 0 0 0 0 0 0 0 0 0 0 0 0 0 0 0 0 0 0 0 0 0 0 0 0 0 0 0 0 0 0 0 0 0 0 0 0 0 0 0 0 0 0 0 0 0 0 0 0 0 0 0 0 0 0 0 0 0 0 0 0 0 0 0 0 0 0 0 0 0 0 0 0 0 0 0 0 0 0 0 0 0 0 0 0 0 0 0 0 0 0 0 0 0 0 0 0 0 0 0 0 0 0 0 0 0 0 0 0 0 0 0 0 0 0 0 0 0 0 0 0 0 0 0 0 0 0 0 0 0 0 0 0 0 0 0 0 0 0 0 0 0 0 0 0 0 0 0 0 0 0 0 0 0 0 0 0 0 0 0 0 0 0 0 0 0 0 0 0 0 0 0 0 0 0 0 0 0 0 0 0 0 0 0 0 0 0 0 0 0 0 0 0 0 0 0 0 0 0 0 0 0 0 0 0 0 0 0 0 0 0 0 0 0 0 0 0 0 0 0 0 0 0 0 0 0 0 0 0 0 0 0 0 0 0 0 0 0 0 0 0 0 0 0 0 0 0 0 0 0 0 0 0 0 0 0 0 0 0 0 0 0 0 0 0 0 0 0 0 0 0 0 0 0 0 0 0 0 0 0 0 0 0 0 0 0 0 0 0 0 0 0 0 0 0 0 0 0 0 0 0 0 0 0 0 0 0 0 0 0 0 0 0 0 0 0 0 0 0 0 0 0 0 0 0 0 0 0 0 0 0 0 0 0 0 0 0 0 0 0 0 0 0 0 0 0 0 0 0 0 0 0 0 0 0 0 0 0 0 0 0 0 0 0 0 0 0 0 0 0 0 0 0 0 0 0 0 0 0 0 0 0 0 0 0 0 0 0 0 0 0 0 0 0 0 0 0 0 0 0 0 0 0 0 0 0 0 0 0 0 0 0 0 0 0 0 0 0.00082903 0.00082903 0.00082903 0.00082903 0.00082903 0.00082903 0.00082903 0.00082903 0.00082903 0.00082903 0.00082903 0.00082903 0.00082903 0.00089812 0.00096721 0.0010363 0.0011054 0.0011745 0.0012436 0.0013126 0.0013817 0.0014508 0.0015199 0.001589 0.0016581 0.0017272 0.0017962 0.0018653 0.0019344 0.0020035 0.0020726 0.0021417 0.0022108 0.0022798 0.0023489 0.002418 0.0024871 0.0025562 0.0026253 0.0026944 0.0027634 0.0028325 0.0029016 0.0029707 0.0030398 0.0031089 0.003178 0.0032471 0.0033161 0.0033852 0.0034543 0.0035234 0.0035925 0.0036616 0.0037307 0.0037997 0.0038688 0.0039379 0.004007 0.0040761 0.0041452 0.0042143 0.0042833 0.0043524 0.0044215 0.0044906 0.0045597 0.0046288 0.0046979 0.0047669 0.004836 0.0049051 0.0049742 0.0050433 0.0051124 0.0051815 0.0052506 0.0053196 0.0053887 0.0054578 0.0055269 0.005596 0.0056651 0.0057342 0.0058032 0.0058723 0.0059414 0.0060105 0.0060796 0.0061487 0.0062178 0.0062868 0.0063559 0.006425 0.0064941 0.0065632 0.0066323 0.0067014 0.0067704 0.0068395 0.0069086 0.0069777 0.0070468 0.0071159 0.007185 0.0072541 0.0073231 0.0073922 0.0074613 0.0075304 0.0075995 0.0076686 0.0077377 0.0078067 0.0078758 0.0079449 0.008014 0.0080831 0.0081522 0.0082213 0.0082903 0.0083594 0.0084285 0.0084976 0.0085667 0.0086358 0.0087049 0.0087739 0.008843 0.0089121 0.0089812 0.0090503 0.0091194 0.0091885 0.0092576 0.0093266 0.0093957 0.0094648 0.0095339 0.009603 0.0096721 0.0097412 0.0098102 0.0098793 0.0099484 0.010018 0.010087 0.010156 0.010225 0.010294 0.010363 0.010432 0.010501 0.01057 0.010639 0.010708 0.010777 0.010847 0.010916 0.010985 0.011054 0.011123 0.011192 0.011261 0.01133 0.011399 0.011468 0.011537 0.011606 0.011676 0.011745 0.011814 0.011883 0.011952 0.012021 0.01209 0.012159 0.012228 0.012297 0.012366 0.012436 0.012505 0.012574 0.012643 0.012712 0.012781 0.01285 0.012919 0.012988 0.013057 0.013126 0.013195 0.013265 0.013334 0.013403 0.013472 0.013541 0.01361 0.013679 0.013748 0.013817 0.013886 0.013955 0.014025 0.014094 0.014163 0.014232 0.014301 0.01437 0.014439 0.014508 0.014577 0.014646 0.014715 0.014784 0.014854 0.014923 0.014992 0.015061 0.01513 0.015199 0.015268 0.015337 0.015406 0.015475 0.015544 0.015613 0.015683 0.015752 0.015821 0.01589 0.015959 0.016028 0.016097 0.016166 0.016235 0.016304 0.016373 0.016443 0.016512 0.016581 0.01665 0.016719 0.016788 0.016857 0.016926 0.016995 0.017064 0.017133 0.017202 0.017272 0.017341 0.01741 0.017479 0.017548 0.017617 0.017686 0.017755 0.017824 0.017893 0.017962 0.018032 0.018101 0.01817 0.018239 0.018308 0.018377 0.018446 0.018515 0.018584 0.018653 0.018722 0.018791 0.018861 0.01893 0.018999 0.019068 0.019137 0.019206 0.019275 0.019344 0.019413 0.019482 0.019551 0.01962 0.01969 0.019759 0.019828 0.019897 0.019966 0.020035 0.020104 0.020173 0.020242 0.020311 0.02038 0.02045 0.020519 0.020588 0.020657 0.020726 0.020795 0.020864 0.020933 0.021002 0.021071 0.02114 0.021209 0.021279 0.021348 0.021417 0.021486 0.021555 0.021624 0.021693 0.021762 0.021831 0.0219 0.021969 0.022039 0.022108 0.022177 0.022246 0.022315 0.022384 0.022453 0.022522 0.022591 0.02266 0.022729 0.022798 0.022868 0.022937 0.023006 0.023075 0.023144 0.023213 0.023282 0.023351 0.02342 0.023489 0.023558 0.023627 0.023697 0.023766 0.023835 0.023904 0.023973 0.024042 0.024111 0.02418 0.024249 0.024318 0.024387 0.024457 0.024526 0.024595 0.024752 0.024997 0.02533 0.025751 0.02626 0.026857 0.027542 0.028315 0.029176 0.030125 0.031162 0.032287 0.0335 0.034801 0.03619 0.037667 0.039232 0.040885 0.042626 0.044455 0.046372 0.048377 0.05047 0.052651 0.05492 0.057189 0.059458 0.061727 0.063996 0.066265 0.068534 0.070802 0.073071 0.07534 0.077609 0.079878 0.082147 0.084416 0.086685 0.088954 0.091223 0.093492 0.095761 0.09803 0.1003 0.10257 0.10484 0.10711 0.10937 0.11164 0.11391 0.11618 0.11845 0.12072 0.12299 0.12526 0.12753 0.12979 0.13206 0.13433 0.1366 0.13887 0.14114 0.14341 0.14568 0.14795 0.15022 0.15248 0.15475 0.15702 0.15929 0.16156 0.16383 0.1661 0.16837 0.17064 0.1729 0.17517 0.17744 0.17971 0.18198 0.18425 0.18652 0.18879 0.19106 0.19333 0.19559 0.19786 0.20013 0.2024 0.20467 0.20694 0.20921 0.21148 0.21375 0.21601 0.21828 0.22055 0.22282 0.22509 0.22736 0.22963 0.2319 0.23417 0.23643 0.2387 0.24097 0.24324 0.24551 0.24778 0.25005 0.25232 0.25459 0.25686 0.25912 0.26139 0.26366 0.26593 0.2682 0.27047 0.27274 0.27501 0.27728 0.27954 0.28181 0.28408 0.28635 0.28862 0.29089 0.29316 0.29543 0.2977 0.29997 0.30223 0.3045 0.30677 0.30904 0.31131 0.31358 0.31585 0.31812 0.32039 0.32265 0.32492 0.32719 0.32946 0.33173 0.334 0.33627 0.33854 0.34081 0.34307 0.34534 0.34761 0.34988 0.35215 0.35442 0.35669 0.35896 0.36123 0.3635 0.36576 0.36803 0.3703 0.37257 0.37484 0.37711 0.37938 0.38165 0.38392 0.38618 0.38845 0.39072 0.39299 0.39526 0.39753 0.3998 0.40207 0.40434 0.40661 0.40887 0.41114 0.41341 0.41568 0.41795 0.42022 0.42249 0.42476 0.42703 0.42929 0.43156 0.43383 0.4361 0.43837 0.44064 0.44291 0.44518 0.44745 0.44971 0.45198 0.45425 0.45652 0.45879 0.46106 0.46333 0.4656 0.46787 0.47014 0.4724 0.47467 0.47694 0.47921 0.48148 0.48375 0.48602 0.48829 0.49056 0.49282 0.49509 0.49736 0.49963 0.5019 0.50417 0.50644 0.50871 0.51098 0.51325 0.51551 0.51778 0.52005 0.52232 0.52459 0.52686 0.52913 0.5314 0.53367 0.53593 0.5382 0.54047 0.54274 0.54501 0.54728 0.54955 0.55182 0.55409 0.55635 0.55862 0.56089 0.56316 0.56543 0.5677 0.56997 0.57224 0.57451 0.57678 0.57904 0.58131 0.58358 0.58585 0.58812 0.59039 0.59266 0.59493 0.5972 0.59946 0.60173 0.604 0.60627 0.60854 0.61081 0.61308 0.61535 0.61762 0.61989 0.62215 0.62442 0.62669 0.62896 0.63123 0.6335 0.63577 0.63804 0.64031 0.64257 0.64484 0.64711 0.64938 0.65165 0.65392 0.65619 0.65846 0.66073 0.66299 0.66526 0.66753 0.6698 0.67207 0.67434 0.67661 0.67888 0.68115 0.68342 0.68568 0.68795 0.69022 0.69249 0.69476 0.69703 0.6993 0.70157 0.70384 0.7061 0.70837 0.71064 0.71291 0.71518 0.71745 0.71972 0.72199 0.72426 0.72653 0.72879 0.73106 0.73333 0.7356 0.73787 0.74014 0.74241 0.74468 0.74695 0.74921 0.75148 0.75375 0.75602 0.75829 0.76056 0.76283 0.7651 0.76737 0.76964 0.7719 0.77417 0.77644 0.77871 0.78098 0.78325 0.78552 0.78779 0.79006 0.79232 0.79459 0.79686 0.79913 0.8014 0.80367 0.80594 0.80821 0.81048 0.81274 0.81501 0.81728 0.81955 0.82182 0.82409 0.82636 0.82863 0.8309 0.83317 0.83543 0.8377 0.83997 0.84224 0.84451 0.84678 0.84905 0.85132 0.85359 0.85585 0.85812 0.86039 0.86266 0.86493 0.8672 0.86947 0.87174 0.87401 0.87628 0.87854 0.88081 0.88308 0.88535 0.88762 0.88989 0.89216 0.89443 0.8967 0.89896 0.90123 0.9035 0.90577 0.90804 0.91031 0.91258 0.91485 0.91712 0.91938 0.92165 0.92392 0.92619 0.92846 0.93073 0.933 0.93527 0.93754 0.93981 0.94207 0.94434 0.94661 0.94888 0.95115 0.95342 0.95569 0.95796 0.96023 0.96249 0.96476 0.96703 0.9693 0.97157 0.97384 0.97611 0.97838 0.98065 0.98292 0.98518 0.98745 0.98972 0.99181 0.99371 0.99544 0.99698 0.99834 0.99952 1.0005 1.0013 1.002 1.0024 1.0027 1.0028 1.0027 1.0024 1.0019 1.0013 1.0005 0.99949 0.9983 0.99694 0.99539 0.99366 0.99175 0.98966 0.98739 0.98511 0.98284 0.98056 0.97829 0.97601 0.97374 0.97147 0.96919 0.96692 0.96464 0.96237 0.9601 0.95782 0.95555 0.95327 0.951 0.94872 0.94645 0.94418 0.9419 0.93963 0.93735 0.93508 0.93281 0.93053 0.92826 0.92598 0.92371 0.92144 0.91916 0.91689 0.91461 0.91234 0.91006 0.90779 0.90552 0.90324 0.90097 0.89869 0.89642 0.89415 0.89187 0.8896 0.88732 0.88505 0.88277 0.8805 0.87823 0.87595 0.87368 0.8714 0.86913 0.86686 0.86458 0.86231 0.86003 0.85776 0.85549 0.85321 0.85094 0.84866 0.84639 0.84411 0.84184 0.83957 0.83729 0.83502 0.83274 0.83047 0.8282 0.82592 0.82365 0.82137 0.8191 0.81682 0.81455 0.81228 0.81 0.80773 0.80545 0.80318 0.80091 0.79863 0.79636 0.79408 0.79181 0.78954 0.78726 0.78499 0.78271 0.78044 0.77816 0.77589 0.77362 0.77134 0.76907 0.76679 0.76452 0.76225 0.75997 0.7577 0.75542 0.75315 0.75087 0.7486 0.74633 0.74405 0.74178 0.7395 0.73723 0.73496 0.73268 0.73041 0.72813 0.72586 0.72358 0.72131 0.71904 0.71676 0.71449 0.71221 0.70994 0.70767 0.70539 0.70312 0.70084 0.69857 0.6963 0.69402 0.69175 0.68947 0.6872 0.68492 0.68265 0.68038 0.6781 0.67583 0.67355 0.67128 0.66901 0.66673 0.66446 0.66218 0.65991 0.65763 0.65536 0.65309 0.65081 0.64854 0.64626 0.64399 0.64172 0.63944 0.63717 0.63489 0.63262 0.63035 0.62807 0.6258 0.62352 0.62125 0.61897 0.6167 0.61443 0.61215 0.60988 0.6076 0.60533 0.60306 0.60078 0.59851 0.59623 0.59396 0.59168 0.58941 0.58714 0.58486 0.58259 0.58031 0.57804 0.57577 0.57349 0.57122 0.56894 0.56667 0.5644 0.56212 0.55985 0.55757 0.5553 0.55302 0.55075 0.54848 0.5462 0.54393 0.54165 0.53938 0.53711 0.53483 0.53256 0.53028 0.52801 0.52573 0.52346 0.52119 0.51891 0.51664 0.51436 0.51209 0.50982 0.50754 0.50527 0.50299 0.50072 0.49845 0.49617 0.4939 0.49162 0.48935 0.48707 0.4848 0.48253 0.48025 0.47798 0.4757 0.47343 0.47116 0.46888 0.46661 0.46433 0.46206 0.45978 0.45751 0.45524 0.45296 0.45069 0.44841 0.44614 0.44387 0.44159 0.43932 0.43704 0.43477 0.43249 0.43022 0.42795 0.42567 0.4234 0.42112 0.41885 0.41658 0.4143 0.41203 0.40975 0.40748 0.40521 0.40293 0.40066 0.39838 0.39611 0.39383 0.39156 0.38929 0.38701 0.38474 0.38246 0.38019 0.37792 0.37564 0.37337 0.37109 0.36882 0.36654 0.36427 0.362 0.35972 0.35745 0.35517 0.3529 0.35063 0.34835 0.34608 0.3438 0.34153 0.33926 0.33698 0.33471 0.33243 0.33016 0.32788 0.32561 0.32334 0.32106 0.31879 0.31651 0.31424 0.31197 0.30969 0.30742 0.30514 0.30287 0.30059 0.29832 0.29605 0.29377 0.2915 0.28922 0.28695 0.28468 0.2824 0.28013 0.27785 0.27558 0.27331 0.27103 0.26876 0.26648 0.26421 0.26193 0.25966 0.25739 0.25511 0.25284 0.25056 0.24829 0.24602 0.24374 0.24147 0.23919 0.23692 0.23464 0.23237 0.2301 0.22782 0.22555 0.22327 0.221 0.21873 0.21645 0.21418 0.2119 0.20963 0.20735 0.20508 0.20281 0.20053 0.19826 0.19598 0.19371 0.19144 0.18916 0.18689 0.18461 0.18234 0.18007 0.17779 0.17552 0.17324 0.17097 0.16869 0.16642 0.16415 0.16187 0.1596 0.15732 0.15505 0.15278 0.1505 0.14823 0.14595 0.14368 0.1414 0.13913 0.13686 0.13458 0.13231 0.13003 0.12776 0.12549 0.12321 0.12094 0.11866 0.11639 0.11412 0.11184 0.10957 0.10729 0.10502 0.10274 0.10047 0.098196 0.095922 0.093648 0.091374 0.0891 0.086826 0.084551 0.082277 0.080003 0.077729 0.075455 0.073181 0.070907 0.068632 0.066358 0.064084 0.06181 0.059536 0.057262 0.054988 0.052713 0.050528 0.048432 0.046426 0.044508 0.042679 0.04094 0.039289 0.037728 0.036256 0.034872 0.033578 0.032374 0.031258 0.030231 0.029293 0.028445 0.027685 0.027015 0.026434 0.025942 0.025538 0.025225 0.025 0.024864 0.024817 0.024771 0.024724 0.024677 0.024631 0.024584 0.024537 0.024491 0.024444 0.024397 0.024351 0.024304 0.024258 0.024211 0.024164 0.024118 0.024071 0.024024 0.023978 0.023931 0.023884 0.023838 0.023791 0.023744 0.023698 0.023651 0.023604 0.023558 0.023511 0.023464 0.023418 0.023371 0.023325 0.023278 0.023231 0.023185 0.023138 0.023091 0.023045 0.022998 0.022951 0.022905 0.022858 0.022811 0.022765 0.022718 0.022671 0.022625 0.022578 0.022531 0.022485 0.022438 0.022392 0.022345 0.022298 0.022252 0.022205 0.022158 0.022112 0.022065 0.022018 0.021972 0.021925 0.021878 0.021832 0.021785 0.021738 0.021692 0.021645 0.021599 0.021552 0.021505 0.021459 0.021412 0.021365 0.021319 0.021272 0.021225 0.021179 0.021132 0.021085 0.021039 0.020992 0.020945 0.020899 0.020852 0.020805 0.020759 0.020712 0.020666 0.020619 0.020572 0.020526 0.020479 0.020432 0.020386 0.020339 0.020292 0.020246 0.020199 0.020152 0.020106 0.020059 0.020012 0.019966 0.019919 0.019872 0.019826 0.019779 0.019733 0.019686 0.019639 0.019593 0.019546 0.019499 0.019453 0.019406 0.019359 0.019313 0.019266 0.019219 0.019173 0.019126 0.019079 0.019033 0.018986 0.01894 0.018893 0.018846 0.0188 0.018753 0.018706 0.01866 0.018613 0.018566 0.01852 0.018473 0.018426 0.01838 0.018333 0.018286 0.01824 0.018193 0.018146 0.0181 0.018053 0.018007 0.01796 0.017913 0.017867 0.01782 0.017773 0.017727 0.01768 0.017633 0.017587 0.01754 0.017493 0.017447 0.0174 0.017353 0.017307 0.01726 0.017213 0.017167 0.01712 0.017074 0.017027 0.01698 0.016934 0.016887 0.01684 0.016794 0.016747 0.0167 0.016654 0.016607 0.01656 0.016514 0.016467 0.01642 0.016374 0.016327 0.016281 0.016234 0.016187 0.016141 0.016094 0.016047 0.016001 0.015954 0.015907 0.015861 0.015814 0.015767 0.015721 0.015674 0.015627 0.015581 0.015534 0.015487 0.015441 0.015394 0.015348 0.015301 0.015254 0.015208 0.015161 0.015114 0.015068 0.015021 0.014974 0.014928 0.014881 0.014834 0.014788 0.014741 0.014694 0.014648 0.014601 0.014555 0.014508 0.014461 0.014415 0.014368 0.014321 0.014275 0.014228 0.014181 0.014135 0.014088 0.014041 0.013995 0.013948 0.013901 0.013855 0.013808 0.013761 0.013715 0.013668 0.013622 0.013575 0.013528 0.013482 0.013435 0.013388 0.013342 0.013295 0.013248 0.013202 0.013155 0.013108 0.013062 0.013015 0.012968 0.012922 0.012875 0.012828 0.012782 0.012735 0.012689 0.012642 0.012595 0.012549 0.012502 0.012455 0.012409 0.012362 0.012315 0.012269 0.012222 0.012175 0.012129 0.012082 0.012035 0.011989 0.011942 0.011896 0.011849 0.011802 0.011756 0.011709 0.011662 0.011616 0.011569 0.011522 0.011476 0.011429 0.011382 0.011336 0.011289 0.011242 0.011196 0.011149 0.011102 0.011056 0.011009 0.010963 0.010916 0.010869 0.010823 0.010776 0.010729 0.010683 0.010636 0.010589 0.010543 0.010496 0.010449 0.010403 0.010356 0.010309 0.010263 0.010216 0.010169 0.010123 0.010076 0.01003 0.0099829 0.0099362 0.0098896 0.0098429 0.0097963 0.0097497 0.009703 0.0096564 0.0096097 0.0095631 0.0095164 0.0094698 0.0094231 0.0093765 0.0093298 0.0092832 0.0092365 0.0091899 0.0091432 0.0090966 0.0090499 0.0090033 0.0089566 0.00891 0.0088633 0.0088167 0.00877 0.0087234 0.0086767 0.0086301 0.0085834 0.0085368 0.0084901 0.0084435 0.0083968 0.0083502 0.0083035 0.0082569 0.0082102 0.0081636 0.0081169 0.0080703 0.0080236 0.007977 0.0079303 0.0078837 0.007837 0.0077904 0.0077437 0.0076971 0.0076504 0.0076038 0.0075571 0.0075105 0.0074638 0.0074172 0.0073705 0.0073239 0.0072773 0.0072306 0.007184 0.0071373 0.0070907 0.007044 0.0069974 0.0069507 0.0069041 0.0068574 0.0068108 0.0067641 0.0067175 0.0066708 0.0066242 0.0065775 0.0065309 0.0064842 0.0064376 0.0063909 0.0063443 0.0062976 0.006251 0.0062043 0.0061577 0.006111 0.0060644 0.0060177 0.0059711 0.0059244 0.0058778 0.0058311 0.0057845 0.0057378 0.0056912 0.0056445 0.0055979 0.0055512 0.0055046 0.0054579 0.0054113 0.0053646 0.005318 0.0052713 0.0052247 0.005178 0.0051314 0.0050847 0.0050381 0.0049914 0.0049448 0.0048981 0.0048515 0.0048049 0.0047582 0.0047116 0.0046649 0.0046183 0.0045716 0.004525 0.0044783 0.0044317 0.004385 0.0043384 0.0042917 0.0042451 0.0041984 0.0041518 0.0041051 0.0040585 0.0040118 0.0039652 0.0039185 0.0038719 0.0038252 0.0037786 0.0037319 0.0036853 0.0036386 0.003592 0.0035453 0.0034987 0.003452 0.0034054 0.0033587 0.0033121 0.0032654 0.0032188 0.0031721 0.0031255 0.0030788 0.0030322 0.0029855 0.0029389 0.0028922 0.0028456 0.0027989 0.0027523 0.0027056 0.002659 0.0026123 0.0025657 0.002519 0.0024724 0.0024258 0.0023791 0.0023325 0.0022858 0.0022392 0.0021925 0.0021459 0.0020992 0.0020526 0.0020059 0.0019593 0.0019126 0.001866 0.0018193 0.0017727 0.001726 0.0016794 0.0016327 0.0015861 0.0015394 0.0014928 0.0014461 0.0013995 0.0013528 0.0013062 0.0012595 0.0012129 0.0011662 0.0011196 0.0010729 0.0010263 0.00097963 0.00093298 0.00088633 0.00083968 0.00079303 0.00074638 0.00069974 0.00065309 0.00060644 0.00055979 0.00026262 -0.00028506 -0.0010833 -0.002132 -0.0034312 -0.0049809 -0.0067812 -0.008832 -0.011133 -0.013685 -0.016487 -0.01954 -0.022844 -0.026397 -0.030202 -0.034257 -0.038562 -0.043118 -0.047925 -0.052981 -0.058289 -0.063847 -0.069655 -0.075714 -0.082024 -0.088334 -0.094643 -0.10095 -0.10726 -0.11357 -0.11988 -0.12619 -0.1325 -0.13881 -0.14512 -0.15143 -0.15774 -0.16405 -0.17036 -0.17667 -0.18298 -0.18929 -0.1956 -0.20191 -0.20821 -0.21452 -0.22083 -0.22714 -0.23345 -0.23976 -0.24607 -0.25238 -0.25869 -0.265 -0.27131 -0.27762 -0.28393 -0.29024 -0.29655 -0.30286 -0.30917 -0.31548 -0.32179 -0.3281 -0.33441 -0.34072 -0.34702 -0.35333 -0.35964 -0.36595 -0.37226 -0.37857 -0.38488 -0.39119 -0.3975 -0.40381 -0.41012 -0.41643 -0.42274 -0.42905 -0.43536 -0.44167 -0.44798 -0.45429 -0.4606 -0.46691 -0.47322 -0.47952 -0.48583 -0.49214 -0.49845 -0.50476 -0.51107 -0.51738 -0.52369 -0.53 -0.53631 -0.54262 -0.54893 -0.55524 -0.56155 -0.56786 -0.57417 -0.58048 -0.58679 -0.5931 -0.59941 -0.60572 -0.61203 -0.61833 -0.62464 -0.63095 -0.63726 -0.64357 -0.64988 -0.65619 -0.6625 -0.66881 -0.67512 -0.68143 -0.68774 -0.69405 -0.70036 -0.70667 -0.71298 -0.71929 -0.7256 -0.73191 -0.73822 -0.74453 -0.75084 -0.75714 -0.76345 -0.76976 -0.77607 -0.78238 -0.78869 -0.79423 -0.79901 -0.80302 -0.80625 -0.80873 -0.81043 -0.81137 -0.81153 -0.81093 -0.80957 -0.80743 -0.80453 -0.80086 -0.79642 -0.79122 -0.78525 -0.77851 -0.771 -0.76272 -0.75368 -0.74387 -0.73329 -0.72194 -0.70983 -0.69695 -0.68407 -0.67119 -0.65831 -0.64542 -0.63254 -0.61966 -0.60678 -0.5939 -0.58102 -0.56814 -0.55525 -0.54237 -0.52949 -0.51661 -0.50373 -0.49085 -0.47797 -0.46508 -0.4522 -0.43932 -0.42644 -0.41356 -0.40068 -0.3878 -0.37492 -0.36203 -0.34915 -0.33627 -0.32339 -0.31051 -0.29763 -0.28475 -0.27186 -0.25898 -0.2461 -0.23322 -0.22034 -0.20746 -0.19458 -0.18169 -0.16881 -0.15593 -0.14305 -0.13017 -0.11729 -0.10441 -0.091525 -0.078644 -0.065763 -0.052881 -0.04 -0.027119 -0.014237 -0.0013559 0.011525 0.024407 0.037288 0.050169 0.063051 0.075932 0.088814 0.10169 0.11458 0.12746 0.14034 0.15322 0.1661 0.17898 0.19186 0.20475 0.21763 0.23051 0.24339 0.25627 0.26915 0.28203 0.29492 0.3078 0.32068 0.33356 0.34644 0.35932 0.3722 0.38508 0.39797 0.41085 0.42373 0.43661 0.44949 0.46237 0.47525 0.48814 0.50102 0.5139 0.52678 0.53966 0.55254 0.56542 0.57831 0.59119 0.60407 0.61695 0.62983 0.64271 0.65559 0.66847 0.68136 0.69424 0.70712 0.72 0.73288 0.74576 0.75864 0.77153 0.78441 0.79729 0.81017 0.82305 0.83593 0.84881 0.86169 0.87458 0.88746 0.90034 0.91322 0.9261 0.93898 0.95186 0.96475 0.97763 0.99051 1.0034 1.0163 1.0292 1.042 1.0549 1.0678 1.0807 1.0936 1.1064 1.1193 1.1322 1.1451 1.158 1.1708 1.1837 1.1966 1.2095 1.2224 1.2353 1.2481 1.261 1.2739 1.2868 1.2997 1.3125 1.3254 1.3383 1.3512 1.3641 1.3769 1.3898 1.4027 1.4156 1.4285 1.4414 1.4542 1.4671 1.48 1.4929 1.5058 1.5186 1.5315 1.5444 1.5573 1.5702 1.5831 1.5959 1.6088 1.6217 1.6346 1.6475 1.6603 1.6732 1.6861 1.699 1.7119 1.7247 1.7376 1.7505 1.7634 1.7763 1.7892 1.802 1.8149 1.8278 1.8407 1.8536 1.8664 1.8793 1.8922 1.9051 1.918 1.9308 1.9437 1.9566 1.9695 1.9824 1.9953 2.0081 2.021 2.0339 2.0468 2.0597 2.0725 2.0854 2.0983 2.1112 2.1241 2.1369 2.1498 2.1627 2.1756 2.1885 2.2014 2.2142 2.2271 2.24 2.2529 2.2658 2.2786 2.2915 2.3044 2.3173 2.3302 2.3431 2.3559 2.3688 2.3817 2.3946 2.4075 2.4203 2.4332 2.4461 2.459 2.4719 2.4847 2.4976 2.5105 2.5234 2.5363 2.5492 2.562 2.5749 2.5878 2.6007 2.6136 2.6264 2.6393 2.6522 2.6651 2.678 2.6908 2.7037 2.7166 2.7295 2.7424 2.7553 2.7681 2.781 2.7939 2.8068 2.8197 2.8325 2.8454 2.8571 2.8674 2.8766 2.8844 2.8911 2.8964 2.9006 2.9034 2.9051 2.9054 2.9046 2.9024 2.8991 2.8944 2.8885 2.8814 2.873 2.8634 2.8525 2.8404 2.827 2.8123 2.7965 2.7793 2.7609 2.7425 2.7242 2.7058 2.6874 2.669 2.6506 2.6322 2.6138 2.5954 2.577 2.5586 2.5403 2.5219 2.5035 2.4851 2.4667 2.4483 2.4299 2.4115 2.3931 2.3747 2.3564 2.338 2.3196 2.3012 2.2828 2.2644 2.246 2.2276 2.2092 2.1908 2.1725 2.1541 2.1357 2.1173 2.0989 2.0805 2.0621 2.0437 2.0253 2.0069 1.9886 1.9702 1.9518 1.9334 1.915 1.8966 1.8782 1.8598 1.8414 1.8231 1.8047 1.7863 1.7679 1.7495 1.7311 1.7127 1.6943 1.6759 1.6575 1.6392 1.6208 1.6024 1.584 1.5656 1.5472 1.5288 1.5104 1.492 1.4736 1.4553 1.4369 1.4185 1.4001 1.3817 1.3633 1.3449 1.3265 1.3081 1.2897 1.2714 1.253 1.2346 1.2162 1.1978 1.1794 1.161 1.1426 1.1242 1.1058 1.0875 1.0691 1.0507 1.0323 1.0139 0.99551 0.97712 0.95873 0.94034 0.92195 0.90356 0.88517 0.86678 0.84839 0.83 0.81161 0.79322 0.77483 0.75644 0.73805 0.71966 0.70127 0.68288 0.66449 0.6461 0.62771 0.60932 0.59093 0.57254 0.55415 0.53576 0.51737 0.49898 0.48059 0.4622 0.44381 0.42542 0.40703 0.38864 0.37025 0.35186 0.33347 0.31508 0.29669 0.27831 0.25992 0.24153 0.22314 0.20475 0.18636 0.16797 0.14958 0.13119 0.1128 0.094407 0.076017 0.057627 0.039237 0.020847 0.0024576 -0.015932 -0.034322 -0.052712 -0.071102 -0.089492 -0.10788 -0.12627 -0.14466 -0.16305 -0.18144 -0.19983 -0.21822 -0.23661 -0.255 -0.27339 -0.29178 -0.31017 -0.32856 -0.34695 -0.36534 -0.38373 -0.40212 -0.42051 -0.4389 -0.45729 -0.47568 -0.49407 -0.51246 -0.53085 -0.54924 -0.56763 -0.58602 -0.60441 -0.6228 -0.64119 -0.65958 -0.67797 -0.69636 -0.71475 -0.73314 -0.75153 -0.76992 -0.78831 -0.80669 -0.82508 -0.84347 -0.86186 -0.88025 -0.89864 -0.91703 -0.93542 -0.95381 -0.9722 -0.99059 -1.009 -1.0274 -1.0458 -1.0642 -1.0825 -1.1009 -1.1193 -1.1377 -1.1561 -1.1745 -1.1929 -1.2113 -1.2297 -1.2481 -1.2664 -1.2848 -1.3032 -1.3216 -1.34 -1.3584 -1.3768 -1.3952 -1.4136 -1.4319 -1.4503 -1.4687 -1.4871 -1.5055 -1.5239 -1.5423 -1.5607 -1.5791 -1.5975 -1.6158 -1.6342 -1.6526 -1.671 -1.6894 -1.7078 -1.7262 -1.7446 -1.763 -1.7814 -1.7997 -1.8181 -1.8365 -1.8549 -1.8733 -1.8917 -1.9101 -1.9285 -1.9469 -1.9653 -1.9836 -2.002 -2.0204 -2.0388 -2.0572 -2.0756 -2.094 -2.1124 -2.1308 -2.1492 -2.1675 -2.1859 -2.2043 -2.2227 -2.2411 -2.2595 -2.2779 -2.2963 -2.3132 -2.3286 -2.3426 -2.3551 -2.3661 -2.3756 -2.3837 -2.3903 -2.3954 -2.399 -2.4012 -2.4018 -2.401 -2.3988 -2.395 -2.3898 -2.3831 -2.3749 -2.3653 -2.3541 -2.3415 -2.3275 -2.3119 -2.2949 -2.2764 -2.2579 -2.2393 -2.2208 -2.2023 -2.1838 -2.1653 -2.1468 -2.1283 -2.1098 -2.0913 -2.0728 -2.0543 -2.0358 -2.0173 -1.9988 -1.9802 -1.9617 -1.9432 -1.9247 -1.9062 -1.8877 -1.8692 -1.8507 -1.8322 -1.8137 -1.7952 -1.7767 -1.7582 -1.7397 -1.7211 -1.7026 -1.6841 -1.6656 -1.6471 -1.6286 -1.6101 -1.5916 -1.5731 -1.5546 -1.5361 -1.5176 -1.4991 -1.4806 -1.4621 -1.4435 -1.425 -1.4065 -1.388 -1.3695 -1.351 -1.3325 -1.314 -1.2955 -1.277 -1.2585 -1.24 -1.2215 -1.203 -1.1844 -1.1659 -1.1474 -1.1289 -1.1104 -1.0919 -1.0734 -1.0549 -1.0364 -1.0179 -0.99938 -0.98087 -0.96236 -0.94386 -0.92535 -0.90684 -0.88833 -0.86983 -0.85132 -0.83281 -0.81431 -0.7958 -0.77729 -0.75879 -0.74028 -0.72177 -0.70327 -0.68476 -0.66625 -0.64774 -0.62924 -0.61073 -0.59222 -0.57372 -0.55521 -0.5367 -0.5182 -0.49969 -0.48118 -0.46267 -0.44417 -0.42566 -0.40715 -0.38865 -0.37014 -0.35163 -0.33313 -0.31462 -0.29611 -0.2776 -0.2591 -0.24059 -0.22208 -0.20432 -0.18729 -0.17099 -0.15544 -0.14063 -0.12655 -0.11321 -0.10061 -0.08875 -0.077627 -0.067242 -0.057596 -0.048689 -0.04052 -0.033089 -0.026397 -0.020443 -0.015227 -0.01075 -0.0070113 -0.004011 -0.0017492 -0.00022575 0.00055928 0.00060588 0.00065249 0.00069909 0.0007457 0.00079231 0.00083891 0.00088552 0.00093213 0.00097873 0.0010253 0.0010719 0.0011186 0.0011652 0.0012118 0.0012584 0.001305 0.0013516 0.0013982 0.0014448 0.0014914 0.001538 0.0015846 0.0016312 0.0016778 0.0017244 0.001771 0.0018176 0.0018643 0.0019109 0.0019575 0.0020041 0.0020507 0.0020973 0.0021439 0.0021905 0.0022371 0.0022837 0.0023303 0.0023769 0.0024235 0.0024701 0.0025167 0.0025633 0.00261 0.0026566 0.0027032 0.0027498 0.0027964 0.002843 0.0028896 0.0029362 0.0029828 0.0030294 0.003076 0.0031226 0.0031692 0.0032158 0.0032624 0.003309 0.0033557 0.0034023 0.0034489 0.0034955 0.0035421 0.0035887 0.0036353 0.0036819 0.0037285 0.0037751 0.0038217 0.0038683 0.0039149 0.0039615 0.0040081 0.0040547 0.0041014 0.004148 0.0041946 0.0042412 0.0042878 0.0043344 0.004381 0.0044276 0.0044742 0.0045208 0.0045674 0.004614 0.0046606 0.0047072 0.0047538 0.0048004 0.0048471 0.0048937 0.0049403 0.0049869 0.0050335 0.0050801 0.0051267 0.0051733 0.0052199 0.0052665 0.0053131 0.0053597 0.0054063 0.0054529 0.0054995 0.0055461 0.0055928 0.0056394 0.005686 0.0057326 0.0057792 0.0058258 0.0058724 0.005919 0.0059656 0.0060122 0.0060588 0.0061054 0.006152 0.0061986 0.0062452 0.0062918 0.0063385 0.0063851 0.0064317 0.0064783 0.0065249 0.0065715 0.0066181 0.0066647 0.0067113 0.0067579 0.0068045 0.0068511 0.0068977 0.0069443 0.0069909 0.0070375 0.0070842 0.0071308 0.0071774 0.007224 0.0072706 0.0073172 0.0073638 0.0074104 0.007457 0.0075036 0.0075502 0.0075968 0.0076434 0.00769 0.0077366 0.0077832 0.0078299 0.0078765 0.0079231 0.0079697 0.0080163 0.0080629 0.0081095 0.0081561 0.0082027 0.0082493 0.0082959 0.0083425 0.0083891 0.0084357 0.0084823 0.008529 0.0085756 0.0086222 0.0086688 0.0087154 0.008762 0.0088086 0.0088552 0.0089018 0.0089484 0.008995 0.0090416 0.0090882 0.0091348 0.0091814 0.009228 0.0092747 0.0093213 0.0093679 0.0094145 0.0094611 0.0095077 0.0095543 0.0096009 0.0096475 0.0096941 0.0097407 0.0097873 0.0098339 0.0098805 0.0099271 0.0099737 0.01002 0.010067 0.010114 0.01016 0.010207 0.010253 0.0103 0.010347 0.010393 0.01044 0.010486 0.010533 0.01058 0.010626 0.010673 0.010719 0.010766 0.010813 0.010859 0.010906 0.010952 0.010999 0.011046 0.011092 0.011139 0.011186 0.011232 0.011279 0.011325 0.011372 0.011419 0.011465 0.011512 0.011558 0.011605 0.011652 0.011698 0.011745 0.011791 0.011838 0.011885 0.011931 0.011978 0.012024 0.012071 0.012118 0.012164 0.012211 0.012257 0.012304 0.012351 0.012397 0.012444 0.01249 0.012537 0.012584 0.01263 0.012677 0.012724 0.01277 0.012817 0.012863 0.01291 0.012957 0.013003 0.01305 0.013096 0.013143 0.01319 0.013236 0.013283 0.013329 0.013376 0.013423 0.013469 0.013516 0.013562 0.013609 0.013656 0.013702 0.013749 0.013795 0.013842 0.013889 0.013935 0.013982 0.014028 0.014075 0.014122 0.014168 0.014215 0.014262 0.014308 0.014355 0.014401 0.014448 0.014495 0.014541 0.014588 0.014634 0.014681 0.014728 0.014774 0.014821 0.014867 0.014914 0.014961 0.015007 0.015054 0.0151 0.015147 0.015194 0.01524 0.015287 0.015333 0.01538 0.015427 0.015473 0.01552 0.015566 0.015613 0.01566 0.015706 0.015753 0.0158 0.015846 0.015893 0.015939 0.015986 0.016033 0.016079 0.016126 0.016172 0.016219 0.016266 0.016312 0.016359 0.016405 0.016452 0.016499 0.016545 0.016592 0.016638 0.016685 0.016732 0.016778 0.016825 0.016871 0.016918 0.016965 0.017011 0.017058 0.017105 0.017151 0.017198 0.017244 0.017291 0.017338 0.017384 0.017431 0.017477 0.017524 0.017571 0.017617 0.017664 0.01771 0.017757 0.017804 0.01785 0.017897 0.017943 0.01799 0.018037 0.018083 0.01813 0.018176 0.018223 0.01827 0.018316 0.018363 0.018409 0.018456 0.018503 0.018549 0.018596 0.018643 0.018689 0.018736 0.018782 0.018829 0.018876 0.018922 0.018969 0.019015 0.019062 0.019109 0.019155 0.019202 0.019248 0.019295 0.019342 0.019388 0.019435 0.019481 0.019528 0.019575 0.019621 0.019668 0.019714 0.019761 0.019808 0.019854 0.019901 0.019947 0.019994 0.020041 0.020087 0.020134 0.020181 0.020227 0.020274 0.02032 0.020367 0.020414 0.02046 0.020507 0.020553 0.0206 0.020647 0.020693 0.02074 0.020786 0.020833 0.02088 0.020926 0.020973 0.021019 0.021066 0.021113 0.021159 0.021206 0.021252 0.021299 0.021346 0.021392 0.021439 0.021485 0.021532 0.021579 0.021625 0.021672 0.021719 0.021765 0.021812 0.021858 0.021905 0.021952 0.021998 0.022045 0.022091 0.022138 0.022185 0.022231 0.022278 0.022324 0.022371 0.022418 0.022464 0.022511 0.022557 0.022604 0.022651 0.022697 0.022744 0.02279 0.022837 0.022884 0.02293 0.022977 0.023024 0.02307 0.023117 0.023163 0.02321 0.023257 0.023303 0.02335 0.023396 0.023443 0.02349 0.023536 0.023583 0.023629 0.023676 0.023723 0.023769 0.023816 0.023862 0.023909 0.023956 0.024002 0.024049 0.024095 0.024142 0.024189 0.024235 0.024282 0.024328 0.024375 0.024422 0.024468 0.024515 0.024562 0.024608 0.024655 0.024701 0.024748 0.024795 0.024841 0.024888 0.024934 0.024981 0.025028 0.025074 0.025121 0.025167 0.025214 0.025261 0.025307 0.025354 0.0254 0.025447 0.025494 0.02554 0.025587 0.025633 0.02568 0.025727 0.025773 0.02582 0.025866 0.025913 0.02596 0.026006 0.026053 0.0261 0.026146 0.026193 0.026239 0.026286 0.026333 0.026379 0.026426 0.026472 0.026519 0.026566 0.026612 0.026659 0.026705 0.026752 0.026799 0.026845 0.026892 0.026938 0.026985 0.027032 0.027078 0.027125 0.027171 0.027218 0.027265 0.027311 0.027358 0.027404 0.027451 0.027498 0.027544 0.027591 0.027638 0.027684 0.027731 0.027777 0.027824 0.027871 0.027917 0.027964 0.02801 0.028057 0.028104 0.02815 0.028197 0.028243 0.02829 0.028337 0.028383 0.02843 0.028476 0.028523 0.02857 0.028616 0.028663 0.028709 0.028756 0.028803 0.028849 0.028896 0.028943 0.028989 0.029036 0.029082 0.029129 0.029176 0.029222 0.029269 0.029315 0.029362 0.029409 0.029455 0.029502 0.029548 0.029595 0.029642 0.029688 0.029735 0.029781 0.029828 0.029875 0.029921 0.029968 0.030014 0.030061 0.030108 0.030154 0.030201 0.030247 0.030294 0.030341 0.030387 0.030434 0.030481 0.030527 0.030574 0.03062 0.030667 0.030714 0.03076 0.030807 0.030853 0.0309 0.030947 0.030993 0.03104 0.031086 0.031133 0.03118 0.031226 0.031273 0.031319 0.031366 0.031413 0.031459 0.031506 0.031552 0.031599 0.031646 0.031692 0.031739 0.031785 0.031832 0.031879 0.031925 0.031972 0.032019 0.032065 0.032112 0.032158 0.032205 0.032252 0.032298 0.032345 0.032391 0.032438 0.032485 0.032531 0.032578 0.032624 0.032671 0.032718 0.032764 0.032811 0.032857 0.032904 0.032951 0.032997 0.033044 0.03309 0.033137 0.033184 0.03323 0.033277 0.033323 0.03337 0.033417 0.033463 0.03351 0.033557 0.033603 0.03365 0.033696 0.033743 0.03379 0.033836 0.033883 0.033929 0.033976 0.034023 0.034069 0.034116 0.034162 0.034209 0.034256 0.034302 0.034349 0.034395 0.034442 0.034489 0.034535 0.034582 0.034628 0.034675 0.034722 0.034768 0.034815 0.034862 0.034908 0.034955 0.035001 0.035048 0.035095 0.035141 0.035188 0.035234 0.035281 0.035328 0.035374 0.035421 0.035467 0.035514 0.035561 0.035607 0.035654 0.0357 0.035747 0.035794 0.03584 0.035887 0.035933 0.03598 0.036027 0.036073 0.03612 0.036166 0.036213 0.03626 0.036306 0.036353 0.0364 0.036446 0.036493 0.036539 0.036586 0.036633 0.036679 0.036726 0.036772 0.036819 0.036866 0.036912 0.036959 0.037005 0.037052 0.037099 0.037145 0.037192 0.037238 0.037285 0.037332 0.037378 0.037425 0.037471 0.037518 0.037565 0.037611 0.037658 0.037704 0.037751 0.037798 0.037844 0.037891 0.037938 0.037984 0.038031 0.038077 0.038124 0.038171 0.038217 0.038264 0.03831 0.038357 0.038404 0.03845 0.038497 0.038543 0.03859 0.038637 0.038683 0.03873 0.038776 0.038823 0.03887 0.038916 0.038963 0.039009 0.039056 0.039103 0.039149 0.039196 0.039242 0.039289 0.039336 0.039382 0.039429 0.039476 0.039522 0.039569 0.039615 0.039662 0.039709 0.039755 0.039802 0.039848 0.039895 0.039942 0.039988 0.040035 0.040081 0.040128 0.040175 0.040221 0.040268 0.040314 0.040361 0.040408 0.040454 0.040501 0.040547 0.040594 0.040641 0.040687 0.040734 0.04078 0.040827 0.040874 0.04092 0.040967 0.041014 0.04106 0.041107 0.041153 0.0412 0.041247 0.041293 0.04134 0.041386 0.041433 0.04148 0.041526 0.041573 0.041619 0.041666 0.041713 0.041759 0.041806 0.041852 0.041899 0.041946 0.041992 0.042039 0.042085 0.042132 0.042179 0.042225 0.042272 0.042319 0.042365 0.042412 0.042458 0.042505 0.042552 0.042598 0.042645 0.042691 0.042738 0.042785 0.042831 0.042878 0.042924 0.042971 0.043018 0.043064 0.043111 0.043157 0.043204 0.043251 0.043297 0.043344 0.04339 0.043437 0.043484 0.04353 0.043577 0.043623 0.04367 0.043717 0.043763 0.04381 0.043857 0.043903 0.04395 0.043996 0.044043 0.04409 0.044136 0.044183 0.044229 0.044276 0.044323 0.044369 0.044416 0.044462 0.044509 0.044556 0.044602 0.044649 0.044695 0.044742 0.044789 0.044835 0.044882 0.044928 0.044975 0.045022 0.045068 0.045115 0.045161 0.045208 0.045255 0.045301 0.045348 0.045395 0.045441 0.045488 0.045534 0.045581 0.045628 0.045674 0.045721 0.045767 0.045814 0.045861 0.045907 0.045954 0.046 0.046047 0.046094 0.04614 0.046187 0.046233 0.04628 0.046327 0.046373 0.04642 0.046466 0.046513 0.04656 0.046606 0.046653 0.046699 0.046746 0.046793 0.046839 0.046886 0.046933 0.046979 0.047026 0.047072 0.047119 0.047166 0.047212 0.047259 0.047305 0.047352 0.047399 0.047445 0.047492 0.047538 0.047585 0.047632 0.047678 0.047725 0.047771 0.047818 0.047865 0.047911 0.047958 0.048004 0.048051 0.048098 0.048144 0.048191 0.048238 0.048284 0.048331 0.048377 0.048424 0.048471 0.048517 0.048564 0.04861 0.048657 0.048704 0.04875 0.048797 0.048843 0.04889 0.048937 0.048983 0.04903 0.049076 0.049123 0.04917 0.049216 0.049263 0.049309 0.049356 0.049403 0.049449 0.049496 0.049542 0.049589 0.049636 0.049682 0.049729 0.049776 0.049822 0.049869 0.049915 0.049962 0.050009 0.050055 0.050102 0.050148 0.050195 0.050242 0.050288 0.050377 0.050509 0.050683 0.050899 0.051158 0.051459 0.051803 0.052189 0.052618 0.053089 0.053603 0.054159 0.054757 0.055398 0.056082 0.056807 0.057576 0.058386 0.05924 0.060135 0.061073 0.062054 0.063077 0.064142 0.06525 0.066358 0.067466 0.068574 0.069682 0.07079 0.071898 0.073006 0.074114 0.075222 0.076329 0.077437 0.078545 0.079653 0.080761 0.081869 0.082977 0.084085 0.085193 0.086301 0.087409 0.088517 0.089624 0.090732 0.09184 0.092948 0.094056 0.095164 0.096272 0.09738 0.098488 0.099596 0.1007 0.10181 0.10292 0.10403 0.10514 0.10624 0.10735 0.10846 0.10957 0.11067 0.11178 0.11289 0.114 0.11511 0.11621 0.11732 0.11843 0.11954 0.12065 0.12175 0.12286 0.12397 0.12508 0.12619 0.12729 0.1284 0.12951 0.13062 0.13173 0.13283 0.13394 0.13505 0.13616 0.13726 0.13837 0.13948 0.14059 0.1417 0.1428 0.14391 0.14502 0.14613 0.14724 0.14834 0.14945 0.15056 0.15167 0.15278 0.15388 0.15499 0.1561 0.15721 0.15832 0.15942 0.16053 0.16164 0.16275 0.16385 0.16496 0.16607 0.16718 0.16829 0.16939 0.1705 0.17161 0.17272 0.17383 0.17493 0.17604 0.17715 0.17826 0.17937 0.18047 0.18158 0.18269 0.1838 0.18491 0.18601 0.18712 0.18823 0.18934 0.19044 0.19155 0.19266 0.19377 0.19488 0.19598 0.19709 0.1982 0.19931 0.20042 0.20152 0.20263 0.20374 0.20485 0.20596 0.20706 0.20817 0.20928 0.21039 0.2115 0.2126 0.21371 0.21482 0.21593 0.21703 0.21814 0.21925 0.22036 0.22147 0.22257 0.22368 0.22479 0.2259 0.22701 0.22811 0.22922 0.23033 0.23144 0.23255 0.23365 0.23476 0.23587 0.23698 0.23809 0.23919 0.2403 0.24141 0.24252 0.24362 0.24473 0.24584 0.24695 0.24806 0.24916 0.25027 0.25138 0.25249 0.2536 0.2547 0.25581 0.25692 0.25803 0.25914 0.26024 0.26135 0.26246 0.26357 0.26468 0.26578 0.26689 0.268 0.26911 0.27021 0.27132 0.27243 0.27354 0.27465 0.27575 0.27686 0.27797 0.27908 0.28019 0.28129 0.2824 0.28351 0.28462 0.28573 0.28683 0.28794 0.28905 0.29016 0.29126 0.29237 0.29348 0.29459 0.2957 0.2968 0.29791 0.29902 0.30013 0.30124 0.30234 0.30345 0.30456 0.30567 0.30678 0.30788 0.30899 0.3101 0.31121 0.31232 0.31342 0.31453 0.31564 0.31675 0.31785 0.31896 0.32007 0.32118 0.32229 0.32339 0.3245 0.32561 0.32672 0.32783 0.32893 0.33004 0.33115 0.33226 0.33337 0.33447 0.33558 0.33669 0.3378 0.33891 0.34001 0.34112 0.34223 0.34334 0.34444 0.34555 0.34666 0.34777 0.34888 0.34998 0.35109 0.3522 0.35331 0.35442 0.35552 0.35663 0.35774 0.35885 0.35996 0.36106 0.36217 0.36328 0.36439 0.3655 0.3666 0.36771 0.36882 0.36993 0.37103 0.37214 0.37325 0.37436 0.37547 0.37657 0.37768 0.37879 0.3799 0.38101 0.38211 0.38322 0.38433 0.38544 0.38655 0.38765 0.38876 0.38987 0.39098 0.39209 0.39319 0.3943 0.39541 0.39652 0.39762 0.39873 0.39984 0.40095 0.40206 0.40316 0.40427 0.40538 0.40649 0.4076 0.4087 0.40981 0.41092 0.41203 0.41314 0.41424 0.41535 0.41646 0.41757 0.41868 0.41978 0.42089 0.422 0.42311 0.42421 0.42532 0.42643 0.42754 0.42865 0.42975 0.43086 0.43197 0.43308 0.43419 0.43529 0.4364 0.43751 0.43862 0.43973 0.44083 0.44194 0.44305 0.44416 0.44527 0.44637 0.44748 0.44859 0.4497 0.4508 0.45191 0.45302 0.45413 0.45524 0.45634 0.45745 0.45856 0.45967 0.46078 0.46188 0.46299 0.4641 0.46521 0.46632 0.46742 0.46853 0.46964 0.47075 0.47186 0.47296 0.47407 0.47518 0.47629 0.47739 0.4785 0.47961 0.48072 0.48183 0.48293 0.48404 0.48515 0.48626 0.48737 0.48847 0.48958 0.49069 0.4918 0.49291 0.49401 0.49512 0.49623 0.49734 0.49845 0.49955 0.50066 0.50177 0.50288 0.50398 0.50509 0.5062 0.50731 0.50842 0.50952 0.51063 0.51174 0.51285 0.51396 0.51506 0.51617 0.51728 0.51839 0.5195 0.5206 0.52162 0.52255 0.5234 0.52415 0.52481 0.52539 0.52588 0.52628 0.52659 0.52681 0.52695 0.52699 0.52695 0.52682 0.5266 0.52629 0.52589 0.52541 0.52483 0.52417 0.52342 0.52258 0.52165 0.52063 0.51953 0.51842 0.51732 0.51621 0.51511 0.514 0.5129 0.51179 0.51069 0.50958 0.50847 0.50737 0.50626 0.50516 0.50405 0.50295 0.50184 0.50074 0.49963 0.49853 0.49742 0.49632 0.49521 0.4941 0.493 0.49189 0.49079 0.48968 0.48858 0.48747 0.48637 0.48526 0.48416 0.48305 0.48195 0.48084 0.47973 0.47863 0.47752 0.47642 0.47531 0.47421 0.4731 0.472 0.47089 0.46979 0.46868 0.46758 0.46647 0.46536 0.46426 0.46315 0.46205 0.46094 0.45984 0.45873 0.45763 0.45652 0.45542 0.45431 0.45321 0.4521 0.45099 0.44989 0.44878 0.44768 0.44657 0.44547 0.44436 0.44326 0.44215 0.44105 0.43994 0.43884 0.43773 0.43662 0.43552 0.43441 0.43331 0.4322 0.4311 0.42999 0.42889 0.42778 0.42668 0.42557 0.42447 0.42336 0.42225 0.42115 0.42004 0.41894 0.41783 0.41673 0.41562 0.41452 0.41341 0.41231 0.4112 0.4101 0.40899 0.40789 0.40678 0.40567 0.40457 0.40346 0.40236 0.40125 0.40015 0.39904 0.39794 0.39683 0.39573 0.39462 0.39352 0.39241 0.3913 0.3902 0.38909 0.38799 0.38688 0.38578 0.38467 0.38357 0.38246 0.38136 0.38025 0.37915 0.37804 0.37693 0.37583 0.37472 0.37362 0.37251 0.37141 0.3703 0.3692 0.36809 0.36699 0.36588 0.36478 0.36367 0.36256 0.36146 0.36035 0.35925 0.35814 0.35704 0.35593 0.35483 0.35372 0.35262 0.35151 0.35041 0.3493 0.34819 0.34709 0.34598 0.34488 0.34377 0.34267 0.34156 0.34046 0.33935 0.33825 0.33714 0.33604 0.33493 0.33382 0.33272 0.33161 0.33051 0.3294 0.3283 0.32719 0.32609 0.32498 0.32388 0.32277 0.32167 0.32056 0.31945 0.31835 0.31724 0.31614 0.31503 0.31393 0.31282 0.31172 0.31061 0.30951 0.3084 0.3073 0.30619 0.30508 0.30398 0.30287 0.30177 0.30066 0.29956 0.29845 0.29735 0.29624 0.29514 0.29403 0.29293 0.29182 0.29071 0.28961 0.2885 0.2874 0.28629 0.28519 0.28408 0.28298 0.28187 0.28077 0.27966 0.27856 0.27745 0.27634 0.27524 0.27413 0.27303 0.27192 0.27082 0.26971 0.26861 0.2675 0.2664 0.26529 0.26419 0.26308 0.26197 0.26087 0.25976 0.25866 0.25755 0.25645 0.25534 0.25424 0.25313 0.25203 0.25092 0.24982 0.24871 0.24761 0.2465 0.24539 0.24429 0.24318 0.24208 0.24097 0.23987 0.23876 0.23766 0.23655 0.23545 0.23434 0.23324 0.23213 0.23102 0.22992 0.22881 0.22771 0.2266 0.2255 0.22439 0.22329 0.22218 0.22108 0.21997 0.21887 0.21776 0.21665 0.21555 0.21444 0.21334 0.21223 0.21113 0.21002 0.20892 0.20781 0.20671 0.2056 0.2045 0.20339 0.20228 0.20118 0.20007 0.19897 0.19786 0.19676 0.19565 0.19455 0.19344 0.19234 0.19123 0.19013 0.18902 0.18791 0.18681 0.1857 0.1846 0.18349 0.18239 0.18128 0.18018 0.17907 0.17797 0.17686 0.17576 0.17465 0.17354 0.17244 0.17133 0.17023 0.16912 0.16802 0.16691 0.16581 0.1647 0.1636 0.16249 0.16139 0.16028 0.15917 0.15807 0.15696 0.15586 0.15475 0.15365 0.15254 0.15144 0.15033 0.14923 0.14812 0.14702 0.14591 0.1448 0.1437 0.14259 0.14149 0.14038 0.13928 0.13817 0.13707 0.13596 0.13486 0.13375 0.13265 0.13154 0.13043 0.12933 0.12822 0.12712 0.12601 0.12491 0.1238 0.1227 0.12159 0.12049 0.11938 0.11828 0.11717 0.11606 0.11496 0.11385 0.11275 0.11164 0.11054 0.10943 0.10833 0.10722 0.10612 0.10501 0.10391 0.1028 0.10169 0.10059 0.099484 0.098379 0.097273 0.096168 0.095063 0.093957 0.092852 0.091746 0.090641 0.089536 0.08843 0.087325 0.08622 0.085114 0.084009 0.082903 0.081798 0.080693 0.079587 0.078482 0.077377 0.076271 0.075166 0.07406 0.072955 0.07185 0.070744 0.069639 0.068534 0.067428 0.066323 0.065217 0.064112 0.063043 0.062009 0.061011 0.06005 0.059124 0.058234 0.05738 0.056562 0.05578 0.055033 0.054323 0.053649 0.05301 0.052408 0.051841 0.05131 0.050815 0.050356 0.049933 0.049546 0.049195 0.04888 0.0486 0.048357 0.048149 0.047942 0.047734 0.047527 0.047319 0.047112 0.046904 0.046697 0.046489 0.046282 0.046074 0.045866 0.045659 0.045451 0.045244 0.045036 0.044829 0.044621 0.044414 0.044206 0.043999 0.043791 0.043584 0.043376 0.043168 0.042961 0.042753 0.042546 0.042338 0.042131 0.041923 0.041716 0.041508 0.041301 0.041093 0.040886 0.040678 0.04047 0.040263 0.040055 0.039848 0.03964 0.039433 0.039225 0.039018 0.03881 0.038603 0.038395 0.038187 0.03798 0.037772 0.037565 0.037357 0.03715 0.036942 0.036735 0.036527 0.03632 0.036112 0.035905 0.035697 0.035489 0.035282 0.035074 0.034867 0.034659 0.034452 0.034244 0.034037 0.033829 0.033622 0.033414 0.033207 0.032999 0.032791 0.032584 0.032376 0.032169 0.031961 0.031754 0.031546 0.031339 0.031131 0.030924 0.030716 0.030508 0.030301 0.030093 0.029886 0.029678 0.029471 0.029263 0.029056 0.028848 0.028641 0.028433 0.028226 0.028018 0.02781 0.027603 0.027395 0.027188 0.02698 0.026773 0.026565 0.026358 0.02615 0.025943 0.025735 0.025527 0.02532 0.025112 0.024905 0.024697 0.02449 0.024282 0.024075 0.023867 0.02366 0.023452 0.023245 0.023037 0.022829 0.022622 0.022414 0.022207 0.021999 0.021792 0.021584 0.021377 0.021169 0.020962 0.020754 0.020547 0.020339 0.020131 0.019924 0.019716 0.019509 0.019301 0.019094 0.018886 0.018679 0.018471 0.018264 0.018056 0.017848 0.017641 0.017433 0.017226 0.017018 0.016811 0.016603 0.016396 0.016188 0.015981 0.015773 0.015566 0.015358 0.01515 0.014943 0.014735 0.014528 0.01432 0.014113 0.013905 0.013698 0.01349 0.013283 0.013075 0.012868 0.01266 0.012452 0.012245 0.012037 0.01183 0.011622 0.011415 0.011207 0.011 0.010792 0.010585 0.010377 0.010169 0.009962 0.0097544 0.0095469 0.0093393 0.0091318 0.0089242 0.0087167 0.0085092 0.0083016 0.0080941 0.0078865 0.007679 0.0074715 0.0072639 0.0070564 0.0068488 0.0066413 0.0064338 0.0062262 0.0060187 0.0058111 0.0056036 0.0053961 0.0051885 0.004981 0.0047734 0.0045659 0.0043584 0.0041508 0.0039433 0.0037357 0.0035282 0.0033207 0.0031131 0.0029056 0.002698 0.0024905 0.0022912 0.0021003 0.0019177 0.0017433 0.0015773 0.0014196 0.0012701 0.001129 0.0009962 0.00087167 0.00075545 0.00064753 0.00054791 0.00045659 0.00037357 0.00029886 0.00023245 0.00017433 0.00012452 8.3016e-05 4.981e-05 2.4905e-05 8.3016e-06 0 0 0 0 0 0 0 0 0 0 0 0 0 0 0 0 0 0 0 0 0 0 0 0 0 0 0 0 0 0 0 0 0 0 0 0 0 0 0 0 0 0 0 0 0 0 0 0 0 0 0 0 0 0 0 0 0 0 0 0 0 0 0 0 0 0 0 0 0 0 0 0 0 0 0 0 0 0 0 0 0 0 0 0 0 0 0 0 0 0 0 0 0 0 0 0 0 0 0 0 0 0 0 0 0 0 0 0 0 0 0 0 0 0 0 0 0 0 0 0 0 0 0 0 0 0 0 0 0 0 0 0 0 0 0 0 0 0 0 0 0 0 0 0 0 0 0 0 0 0 0 0 0 0 0 0 0 0 0 0 0 0 0 0 0 0 0 0 0 0 0 0 0 0 0 0 0 0 0 0 0 0 0 0 0 0 0 0 0 0 0 0 0 0 0 0 0 0 0 0 0 0 0 0 0 0 0 0 0 0 0 0 0 0 0 0 0 0 0 0 0 0 0 0 0 0 0 0 0 0 0 0 0 0 0 0 0 0 0 0 0 0 0 0 0 0 0 0 0 0 0 0 0 0 0 0 0 0 0 0 0 0 0 0 0 0 0 0 0 0 0 0 0 0 0 0 0 0 0 0 0 0 0 0 0 0 0 0 0 0 0 0 0 0 0 0 0 0 0 0 0 0 0 0 0 0 0 0 0 0 0 0 0 0 0 0 0 0 0 0 0 0 0 0 0 0 0 0 0 0 0 0 0 0 0 0 0 0 0 0 0 0 0 0 0 0 0 0 0 0 0 0 0 0 0 0 0 0 0 0 0 0 0 0 0 0 0 0 0 0 0 0 0 0 0 0 0 0 0 0 0 0 0 0 0 0 0 0 0 0 0 0 0 0 0 0 0 0 0 0 0 0 0 0 0 0 0 0 0 0 0 0 0 0 0 0 0 0 0 0 0 0 0 0 0 0 0 0 0 0 0 0 0 0 0 0 0 0 0 0 0 0 0 0 0 0 0 0 0 0 0 0 0 0 0 0 0 0 0 0 0 0 0 0 0 0 0 0 0 0 0 0 0 0 0 0 0 0 0 0 0 0 0 0 0 0 0 0 0 0 0 0 0 0 0 0 0 0 0 0 0 0 0 0 0 0 0 0 0 0 0 0 0 0 0 0 0 0 0 0 0 0 0 0 0 0 0 0 0 0 0 0 0 0 0 0 0 0 0 0 0 0 0 0 0 0 0 0 0 0 0 0 0 0 0 0 0 0 0 0 0 0 0 0 0 0 0 0 0 0 0 0 0 0 0 0 0 0 0 0 0 0 0 0 0 0 0 0 0 0 0 0 0 0 0 0 0 0 0 0 0 0 0 0 0 0 0 0 0 0 0 0 0 0 0 0 0 0 0 0 0 0 0 0 0 0 0 0 0 0 0 0 0 0 0 0 0 0 0 0 0 0 0 0 0 0 0 0 0 0 0 0 0 0 0 0 0 0 0 0 0 0 0 0 0 0 0 0 0 0 0 0 0 0 0 0 0 0 0 0 0 0 0 0 0 0 0 0 0 0 0 0 0 0 0 0 0 0 0 0 0 0 0 0 0 0 0 0 0 0 0 0 0 0 0 0 0 0 0 0 0 0 0 0 0 0 0 0 0 0 0 0 0 0 0 0 0 0 0 0 0 0 0 0 0 0 0 0 0 0 0 0 0 0 0 0 0 0 0 0 0 0 0 0 0 0 0 0 0 0 0 0 0 0 0 0 0 0 0 0 0 0 0 0 0 0 0 0 0 0 0 0 0 0 0 0 0 0 0 0 0 0 0 0 0 0 0 0 0 0 0 0 0 0 0 0 0 0 0 0 0 0 0 0 0 0 0 0 0 0 0 0 0 0 0 0 0 0 0 0 0 0 0 0 0 0 0 0 0 0 0 0 0 0 0 0 0 0 0 0 0 0 0 0 0 0 0 0 0 0 0 0 0 0 0 0 0 0 0 0 0 0 0 0 0 0 0 0 0 0 0 0 0 0 0 0 0 0 0 0 0 0 0 0 0 0 0 0 0 0 0 0 0 0 0 0 0 0 0 0 0 0 0 0 0 0 0 0 0 0 0 0 0 0 0 0 0 0 0 0 0 0 0 0 0 0 0 0 0 0 0 0 0 0 0 0 0 0 0 0 0 0 0 0 0 0 0 0 0 0 0 0 0 0 0 0 0 0 0 0 0 0 0 0 0 0 0 0 0 0 0 0 0 0 0 0 0 0 0 0 0 0 0 0 0 0 0 0 0 0 0 0 0 0 0 0 0 0 0 0 0 0 0 0 0 0 0 0 0 0 0 0 0 0 0 0 0 0 0 0 0 0 0 0 0 0 0 0 0 0 0 0 0 0 0 0 0 0 0 0 0 0 0 0 0 0 0 0 0 0 0 0 0 0 0 0 0 0 0 0 0 0 0 0 0 0 0 0 0 0 0 0 0 0 0 0 0 0 0 0 0 0 0 0 0 0 0 0 0 0 0 0 0 0 0 0 0 0 0 0 0.00082903 0.00082903 0.00082903 0.00082903 0.00082903 0.00082903 0.00082903 0.00082903 0.00082903 0.00082903 0.00082903 0.00082903 0.00082903 0.00089812 0.00096721 0.0010363 0.0011054 0.0011745 0.0012436 0.0013126 0.0013817 0.0014508 0.0015199 0.001589 0.0016581 0.0017272 0.0017962 0.0018653 0.0019344 0.0020035 0.0020726 0.0021417 0.0022108 0.0022798 0.0023489 0.002418 0.0024871 0.0025562 0.0026253 0.0026944 0.0027634 0.0028325 0.0029016 0.0029707 0.0030398 0.0031089 0.003178 0.0032471 0.0033161 0.0033852 0.0034543 0.0035234 0.0035925 0.0036616 0.0037307 0.0037997 0.0038688 0.0039379 0.004007 0.0040761 0.0041452 0.0042143 0.0042833 0.0043524 0.0044215 0.0044906 0.0045597 0.0046288 0.0046979 0.0047669 0.004836 0.0049051 0.0049742 0.0050433 0.0051124 0.0051815 0.0052506 0.0053196 0.0053887 0.0054578 0.0055269 0.005596 0.0056651 0.0057342 0.0058032 0.0058723 0.0059414 0.0060105 0.0060796 0.0061487 0.0062178 0.0062868 0.0063559 0.006425 0.0064941 0.0065632 0.0066323 0.0067014 0.0067704 0.0068395 0.0069086 0.0069777 0.0070468 0.0071159 0.007185 0.0072541 0.0073231 0.0073922 0.0074613 0.0075304 0.0075995 0.0076686 0.0077377 0.0078067 0.0078758 0.0079449 0.008014 0.0080831 0.0081522 0.0082213 0.0082903 0.0083594 0.0084285 0.0084976 0.0085667 0.0086358 0.0087049 0.0087739 0.008843 0.0089121 0.0089812 0.0090503 0.0091194 0.0091885 0.0092576 0.0093266 0.0093957 0.0094648 0.0095339 0.009603 0.0096721 0.0097412 0.0098102 0.0098793 0.0099484 0.010018 0.010087 0.010156 0.010225 0.010294 0.010363 0.010432 0.010501 0.01057 0.010639 0.010708 0.010777 0.010847 0.010916 0.010985 0.011054 0.011123 0.011192 0.011261 0.01133 0.011399 0.011468 0.011537 0.011606 0.011676 0.011745 0.011814 0.011883 0.011952 0.012021 0.01209 0.012159 0.012228 0.012297 0.012366 0.012436 0.012505 0.012574 0.012643 0.012712 0.012781 0.01285 0.012919 0.012988 0.013057 0.013126 0.013195 0.013265 0.013334 0.013403 0.013472 0.013541 0.01361 0.013679 0.013748 0.013817 0.013886 0.013955 0.014025 0.014094 0.014163 0.014232 0.014301 0.01437 0.014439 0.014508 0.014577 0.014646 0.014715 0.014784 0.014854 0.014923 0.014992 0.015061 0.01513 0.015199 0.015268 0.015337 0.015406 0.015475 0.015544 0.015613 0.015683 0.015752 0.015821 0.01589 0.015959 0.016028 0.016097 0.016166 0.016235 0.016304 0.016373 0.016443 0.016512 0.016581 0.01665 0.016719 0.016788 0.016857 0.016926 0.016995 0.017064 0.017133 0.017202 0.017272 0.017341 0.01741 0.017479 0.017548 0.017617 0.017686 0.017755 0.017824 0.017893 0.017962 0.018032 0.018101 0.01817 0.018239 0.018308 0.018377 0.018446 0.018515 0.018584 0.018653 0.018722 0.018791 0.018861 0.01893 0.018999 0.019068 0.019137 0.019206 0.019275 0.019344 0.019413 0.019482 0.019551 0.01962 0.01969 0.019759 0.019828 0.019897 0.019966 0.020035 0.020104 0.020173 0.020242 0.020311 0.02038 0.02045 0.020519 0.020588 0.020657 0.020726 0.020795 0.020864 0.020933 0.021002 0.021071 0.02114 0.021209 0.021279 0.021348 0.021417 0.021486 0.021555 0.021624 0.021693 0.021762 0.021831 0.0219 0.021969 0.022039 0.022108 0.022177 0.022246 0.022315 0.022384 0.022453 0.022522 0.022591 0.02266 0.022729 0.022798 0.022868 0.022937 0.023006 0.023075 0.023144 0.023213 0.023282 0.023351 0.02342 0.023489 0.023558 0.023627 0.023697 0.023766 0.023835 0.023904 0.023973 0.024042 0.024111 0.02418 0.024249 0.024318 0.024387 0.024457 0.024526 0.024595 0.024752 0.024997 0.02533 0.025751 0.02626 0.026857 0.027542 0.028315 0.029176 0.030125 0.031162 0.032287 0.0335 0.034801 0.03619 0.037667 0.039232 0.040885 0.042626 0.044455 0.046372 0.048377 0.05047 0.052651 0.05492 0.057189 0.059458 0.061727 0.063996 0.066265 0.068534 0.070802 0.073071 0.07534 0.077609 0.079878 0.082147 0.084416 0.086685 0.088954 0.091223 0.093492 0.095761 0.09803 0.1003 0.10257 0.10484 0.10711 0.10937 0.11164 0.11391 0.11618 0.11845 0.12072 0.12299 0.12526 0.12753 0.12979 0.13206 0.13433 0.1366 0.13887 0.14114 0.14341 0.14568 0.14795 0.15022 0.15248 0.15475 0.15702 0.15929 0.16156 0.16383 0.1661 0.16837 0.17064 0.1729 0.17517 0.17744 0.17971 0.18198 0.18425 0.18652 0.18879 0.19106 0.19333 0.19559 0.19786 0.20013 0.2024 0.20467 0.20694 0.20921 0.21148 0.21375 0.21601 0.21828 0.22055 0.22282 0.22509 0.22736 0.22963 0.2319 0.23417 0.23643 0.2387 0.24097 0.24324 0.24551 0.24778 0.25005 0.25232 0.25459 0.25686 0.25912 0.26139 0.26366 0.26593 0.2682 0.27047 0.27274 0.27501 0.27728 0.27954 0.28181 0.28408 0.28635 0.28862 0.29089 0.29316 0.29543 0.2977 0.29997 0.30223 0.3045 0.30677 0.30904 0.31131 0.31358 0.31585 0.31812 0.32039 0.32265 0.32492 0.32719 0.32946 0.33173 0.334 0.33627 0.33854 0.34081 0.34307 0.34534 0.34761 0.34988 0.35215 0.35442 0.35669 0.35896 0.36123 0.3635 0.36576 0.36803 0.3703 0.37257 0.37484 0.37711 0.37938 0.38165 0.38392 0.38618 0.38845 0.39072 0.39299 0.39526 0.39753 0.3998 0.40207 0.40434 0.40661 0.40887 0.41114 0.41341 0.41568 0.41795 0.42022 0.42249 0.42476 0.42703 0.42929 0.43156 0.43383 0.4361 0.43837 0.44064 0.44291 0.44518 0.44745 0.44971 0.45198 0.45425 0.45652 0.45879 0.46106 0.46333 0.4656 0.46787 0.47014 0.4724 0.47467 0.47694 0.47921 0.48148 0.48375 0.48602 0.48829 0.49056 0.49282 0.49509 0.49736 0.49963 0.5019 0.50417 0.50644 0.50871 0.51098 0.51325 0.51551 0.51778 0.52005 0.52232 0.52459 0.52686 0.52913 0.5314 0.53367 0.53593 0.5382 0.54047 0.54274 0.54501 0.54728 0.54955 0.55182 0.55409 0.55635 0.55862 0.56089 0.56316 0.56543 0.5677 0.56997 0.57224 0.57451 0.57678 0.57904 0.58131 0.58358 0.58585 0.58812 0.59039 0.59266 0.59493 0.5972 0.59946 0.60173 0.604 0.60627 0.60854 0.61081 0.61308 0.61535 0.61762 0.61989 0.62215 0.62442 0.62669 0.62896 0.63123 0.6335 0.63577 0.63804 0.64031 0.64257 0.64484 0.64711 0.64938 0.65165 0.65392 0.65619 0.65846 0.66073 0.66299 0.66526 0.66753 0.6698 0.67207 0.67434 0.67661 0.67888 0.68115 0.68342 0.68568 0.68795 0.69022 0.69249 0.69476 0.69703 0.6993 0.70157 0.70384 0.7061 0.70837 0.71064 0.71291 0.71518 0.71745 0.71972 0.72199 0.72426 0.72653 0.72879 0.73106 0.73333 0.7356 0.73787 0.74014 0.74241 0.74468 0.74695 0.74921 0.75148 0.75375 0.75602 0.75829 0.76056 0.76283 0.7651 0.76737 0.76964 0.7719 0.77417 0.77644 0.77871 0.78098 0.78325 0.78552 0.78779 0.79006 0.79232 0.79459 0.79686 0.79913 0.8014 0.80367 0.80594 0.80821 0.81048 0.81274 0.81501 0.81728 0.81955 0.82182 0.82409 0.82636 0.82863 0.8309 0.83317 0.83543 0.8377 0.83997 0.84224 0.84451 0.84678 0.84905 0.85132 0.85359 0.85585 0.85812 0.86039 0.86266 0.86493 0.8672 0.86947 0.87174 0.87401 0.87628 0.87854 0.88081 0.88308 0.88535 0.88762 0.88989 0.89216 0.89443 0.8967 0.89896 0.90123 0.9035 0.90577 0.90804 0.91031 0.91258 0.91485 0.91712 0.91938 0.92165 0.92392 0.92619 0.92846 0.93073 0.933 0.93527 0.93754 0.93981 0.94207 0.94434 0.94661 0.94888 0.95115 0.95342 0.95569 0.95796 0.96023 0.96249 0.96476 0.96703 0.9693 0.97157 0.97384 0.97611 0.97838 0.98065 0.98292 0.98518 0.98745 0.98972 0.99181 0.99371 0.99544 0.99698 0.99834 0.99952 1.0005 1.0013 1.002 1.0024 1.0027 1.0028 1.0027 1.0024 1.0019 1.0013 1.0005 0.99949 0.9983 0.99694 0.99539 0.99366 0.99175 0.98966 0.98739 0.98511 0.98284 0.98056 0.97829 0.97601 0.97374 0.97147 0.96919 0.96692 0.96464 0.96237 0.9601 0.95782 0.95555 0.95327 0.951 0.94872 0.94645 0.94418 0.9419 0.93963 0.93735 0.93508 0.93281 0.93053 0.92826 0.92598 0.92371 0.92144 0.91916 0.91689 0.91461 0.91234 0.91006 0.90779 0.90552 0.90324 0.90097 0.89869 0.89642 0.89415 0.89187 0.8896 0.88732 0.88505 0.88277 0.8805 0.87823 0.87595 0.87368 0.8714 0.86913 0.86686 0.86458 0.86231 0.86003 0.85776 0.85549 0.85321 0.85094 0.84866 0.84639 0.84411 0.84184 0.83957 0.83729 0.83502 0.83274 0.83047 0.8282 0.82592 0.82365 0.82137 0.8191 0.81682 0.81455 0.81228 0.81 0.80773 0.80545 0.80318 0.80091 0.79863 0.79636 0.79408 0.79181 0.78954 0.78726 0.78499 0.78271 0.78044 0.77816 0.77589 0.77362 0.77134 0.76907 0.76679 0.76452 0.76225 0.75997 0.7577 0.75542 0.75315 0.75087 0.7486 0.74633 0.74405 0.74178 0.7395 0.73723 0.73496 0.73268 0.73041 0.72813 0.72586 0.72358 0.72131 0.71904 0.71676 0.71449 0.71221 0.70994 0.70767 0.70539 0.70312 0.70084 0.69857 0.6963 0.69402 0.69175 0.68947 0.6872 0.68492 0.68265 0.68038 0.6781 0.67583 0.67355 0.67128 0.66901 0.66673 0.66446 0.66218 0.65991 0.65763 0.65536 0.65309 0.65081 0.64854 0.64626 0.64399 0.64172 0.63944 0.63717 0.63489 0.63262 0.63035 0.62807 0.6258 0.62352 0.62125 0.61897 0.6167 0.61443 0.61215 0.60988 0.6076 0.60533 0.60306 0.60078 0.59851 0.59623 0.59396 0.59168 0.58941 0.58714 0.58486 0.58259 0.58031 0.57804 0.57577 0.57349 0.57122 0.56894 0.56667 0.5644 0.56212 0.55985 0.55757 0.5553 0.55302 0.55075 0.54848 0.5462 0.54393 0.54165 0.53938 0.53711 0.53483 0.53256 0.53028 0.52801 0.52573 0.52346 0.52119 0.51891 0.51664 0.51436 0.51209 0.50982 0.50754 0.50527 0.50299 0.50072 0.49845 0.49617 0.4939 0.49162 0.48935 0.48707 0.4848 0.48253 0.48025 0.47798 0.4757 0.47343 0.47116 0.46888 0.46661 0.46433 0.46206 0.45978 0.45751 0.45524 0.45296 0.45069 0.44841 0.44614 0.44387 0.44159 0.43932 0.43704 0.43477 0.43249 0.43022 0.42795 0.42567 0.4234 0.42112 0.41885 0.41658 0.4143 0.41203 0.40975 0.40748 0.40521 0.40293 0.40066 0.39838 0.39611 0.39383 0.39156 0.38929 0.38701 0.38474 0.38246 0.38019 0.37792 0.37564 0.37337 0.37109 0.36882 0.36654 0.36427 0.362 0.35972 0.35745 0.35517 0.3529 0.35063 0.34835 0.34608 0.3438 0.34153 0.33926 0.33698 0.33471 0.33243 0.33016 0.32788 0.32561 0.32334 0.32106 0.31879 0.31651 0.31424 0.31197 0.30969 0.30742 0.30514 0.30287 0.30059 0.29832 0.29605 0.29377 0.2915 0.28922 0.28695 0.28468 0.2824 0.28013 0.27785 0.27558 0.27331 0.27103 0.26876 0.26648 0.26421 0.26193 0.25966 0.25739 0.25511 0.25284 0.25056 0.24829 0.24602 0.24374 0.24147 0.23919 0.23692 0.23464 0.23237 0.2301 0.22782 0.22555 0.22327 0.221 0.21873 0.21645 0.21418 0.2119 0.20963 0.20735 0.20508 0.20281 0.20053 0.19826 0.19598 0.19371 0.19144 0.18916 0.18689 0.18461 0.18234 0.18007 0.17779 0.17552 0.17324 0.17097 0.16869 0.16642 0.16415 0.16187 0.1596 0.15732 0.15505 0.15278 0.1505 0.14823 0.14595 0.14368 0.1414 0.13913 0.13686 0.13458 0.13231 0.13003 0.12776 0.12549 0.12321 0.12094 0.11866 0.11639 0.11412 0.11184 0.10957 0.10729 0.10502 0.10274 0.10047 0.098196 0.095922 0.093648 0.091374 0.0891 0.086826 0.084551 0.082277 0.080003 0.077729 0.075455 0.073181 0.070907 0.068632 0.066358 0.064084 0.06181 0.059536 0.057262 0.054988 0.052713 0.050528 0.048432 0.046426 0.044508 0.042679 0.04094 0.039289 0.037728 0.036256 0.034872 0.033578 0.032374 0.031258 0.030231 0.029293 0.028445 0.027685 0.027015 0.026434 0.025942 0.025538 0.025225 0.025 0.024864 0.024817 0.024771 0.024724 0.024677 0.024631 0.024584 0.024537 0.024491 0.024444 0.024397 0.024351 0.024304 0.024258 0.024211 0.024164 0.024118 0.024071 0.024024 0.023978 0.023931 0.023884 0.023838 0.023791 0.023744 0.023698 0.023651 0.023604 0.023558 0.023511 0.023464 0.023418 0.023371 0.023325 0.023278 0.023231 0.023185 0.023138 0.023091 0.023045 0.022998 0.022951 0.022905 0.022858 0.022811 0.022765 0.022718 0.022671 0.022625 0.022578 0.022531 0.022485 0.022438 0.022392 0.022345 0.022298 0.022252 0.022205 0.022158 0.022112 0.022065 0.022018 0.021972 0.021925 0.021878 0.021832 0.021785 0.021738 0.021692 0.021645 0.021599 0.021552 0.021505 0.021459 0.021412 0.021365 0.021319 0.021272 0.021225 0.021179 0.021132 0.021085 0.021039 0.020992 0.020945 0.020899 0.020852 0.020805 0.020759 0.020712 0.020666 0.020619 0.020572 0.020526 0.020479 0.020432 0.020386 0.020339 0.020292 0.020246 0.020199 0.020152 0.020106 0.020059 0.020012 0.019966 0.019919 0.019872 0.019826 0.019779 0.019733 0.019686 0.019639 0.019593 0.019546 0.019499 0.019453 0.019406 0.019359 0.019313 0.019266 0.019219 0.019173 0.019126 0.019079 0.019033 0.018986 0.01894 0.018893 0.018846 0.0188 0.018753 0.018706 0.01866 0.018613 0.018566 0.01852 0.018473 0.018426 0.01838 0.018333 0.018286 0.01824 0.018193 0.018146 0.0181 0.018053 0.018007 0.01796 0.017913 0.017867 0.01782 0.017773 0.017727 0.01768 0.017633 0.017587 0.01754 0.017493 0.017447 0.0174 0.017353 0.017307 0.01726 0.017213 0.017167 0.01712 0.017074 0.017027 0.01698 0.016934 0.016887 0.01684 0.016794 0.016747 0.0167 0.016654 0.016607 0.01656 0.016514 0.016467 0.01642 0.016374 0.016327 0.016281 0.016234 0.016187 0.016141 0.016094 0.016047 0.016001 0.015954 0.015907 0.015861 0.015814 0.015767 0.015721 0.015674 0.015627 0.015581 0.015534 0.015487 0.015441 0.015394 0.015348 0.015301 0.015254 0.015208 0.015161 0.015114 0.015068 0.015021 0.014974 0.014928 0.014881 0.014834 0.014788 0.014741 0.014694 0.014648 0.014601 0.014555 0.014508 0.014461 0.014415 0.014368 0.014321 0.014275 0.014228 0.014181 0.014135 0.014088 0.014041 0.013995 0.013948 0.013901 0.013855 0.013808 0.013761 0.013715 0.013668 0.013622 0.013575 0.013528 0.013482 0.013435 0.013388 0.013342 0.013295 0.013248 0.013202 0.013155 0.013108 0.013062 0.013015 0.012968 0.012922 0.012875 0.012828 0.012782 0.012735 0.012689 0.012642 0.012595 0.012549 0.012502 0.012455 0.012409 0.012362 0.012315 0.012269 0.012222 0.012175 0.012129 0.012082 0.012035 0.011989 0.011942 0.011896 0.011849 0.011802 0.011756 0.011709 0.011662 0.011616 0.011569 0.011522 0.011476 0.011429 0.011382 0.011336 0.011289 0.011242 0.011196 0.011149 0.011102 0.011056 0.011009 0.010963 0.010916 0.010869 0.010823 0.010776 0.010729 0.010683 0.010636 0.010589 0.010543 0.010496 0.010449 0.010403 0.010356 0.010309 0.010263 0.010216 0.010169 0.010123 0.010076 0.01003 0.0099829 0.0099362 0.0098896 0.0098429 0.0097963 0.0097497 0.009703 0.0096564 0.0096097 0.0095631 0.0095164 0.0094698 0.0094231 0.0093765 0.0093298 0.0092832 0.0092365 0.0091899 0.0091432 0.0090966 0.0090499 0.0090033 0.0089566 0.00891 0.0088633 0.0088167 0.00877 0.0087234 0.0086767 0.0086301 0.0085834 0.0085368 0.0084901 0.0084435 0.0083968 0.0083502 0.0083035 0.0082569 0.0082102 0.0081636 0.0081169 0.0080703 0.0080236 0.007977 0.0079303 0.0078837 0.007837 0.0077904 0.0077437 0.0076971 0.0076504 0.0076038 0.0075571 0.0075105 0.0074638 0.0074172 0.0073705 0.0073239 0.0072773 0.0072306 0.007184 0.0071373 0.0070907 0.007044 0.0069974 0.0069507 0.0069041 0.0068574 0.0068108 0.0067641 0.0067175 0.0066708 0.0066242 0.0065775 0.0065309 0.0064842 0.0064376 0.0063909 0.0063443 0.0062976 0.006251 0.0062043 0.0061577 0.006111 0.0060644 0.0060177 0.0059711 0.0059244 0.0058778 0.0058311 0.0057845 0.0057378 0.0056912 0.0056445 0.0055979 0.0055512 0.0055046 0.0054579 0.0054113 0.0053646 0.005318 0.0052713 0.0052247 0.005178 0.0051314 0.0050847 0.0050381 0.0049914 0.0049448 0.0048981 0.0048515 0.0048049 0.0047582 0.0047116 0.0046649 0.0046183 0.0045716 0.004525 0.0044783 0.0044317 0.004385 0.0043384 0.0042917 0.0042451 0.0041984 0.0041518 0.0041051 0.0040585 0.0040118 0.0039652 0.0039185 0.0038719 0.0038252 0.0037786 0.0037319 0.0036853 0.0036386 0.003592 0.0035453 0.0034987 0.003452 0.0034054 0.0033587 0.0033121 0.0032654 0.0032188 0.0031721 0.0031255 0.0030788 0.0030322 0.0029855 0.0029389 0.0028922 0.0028456 0.0027989 0.0027523 0.0027056 0.002659 0.0026123 0.0025657 0.002519 0.0024724 0.0024258 0.0023791 0.0023325 0.0022858 0.0022392 0.0021925 0.0021459 0.0020992 0.0020526 0.0020059 0.0019593 0.0019126 0.001866 0.0018193 0.0017727 0.001726 0.0016794 0.0016327 0.0015861 0.0015394 0.0014928 0.0014461 0.0013995 0.0013528 0.0013062 0.0012595 0.0012129 0.0011662 0.0011196 0.0010729 0.0010263 0.00097963 0.00093298 0.00088633 0.00083968 0.00079303 0.00074638 0.00069974 0.00065309 0.00060644 0.00055979 0.00026262 -0.00028506 -0.0010833 -0.002132 -0.0034312 -0.0049809 -0.0067812 -0.008832 -0.011133 -0.013685 -0.016487 -0.01954 -0.022844 -0.026397 -0.030202 -0.034257 -0.038562 -0.043118 -0.047925 -0.052981 -0.058289 -0.063847 -0.069655 -0.075714 -0.082024 -0.088334 -0.094643 -0.10095 -0.10726 -0.11357 -0.11988 -0.12619 -0.1325 -0.13881 -0.14512 -0.15143 -0.15774 -0.16405 -0.17036 -0.17667 -0.18298 -0.18929 -0.1956 -0.20191 -0.20821 -0.21452 -0.22083 -0.22714 -0.23345 -0.23976 -0.24607 -0.25238 -0.25869 -0.265 -0.27131 -0.27762 -0.28393 -0.29024 -0.29655 -0.30286 -0.30917 -0.31548 -0.32179 -0.3281 -0.33441 -0.34072 -0.34702 -0.35333 -0.35964 -0.36595 -0.37226 -0.37857 -0.38488 -0.39119 -0.3975 -0.40381 -0.41012 -0.41643 -0.42274 -0.42905 -0.43536 -0.44167 -0.44798 -0.45429 -0.4606 -0.46691 -0.47322 -0.47952 -0.48583 -0.49214 -0.49845 -0.50476 -0.51107 -0.51738 -0.52369 -0.53 -0.53631 -0.54262 -0.54893 -0.55524 -0.56155 -0.56786 -0.57417 -0.58048 -0.58679 -0.5931 -0.59941 -0.60572 -0.61203 -0.61833 -0.62464 -0.63095 -0.63726 -0.64357 -0.64988 -0.65619 -0.6625 -0.66881 -0.67512 -0.68143 -0.68774 -0.69405 -0.70036 -0.70667 -0.71298 -0.71929 -0.7256 -0.73191 -0.73822 -0.74453 -0.75084 -0.75714 -0.76345 -0.76976 -0.77607 -0.78238 -0.78869 -0.79423 -0.79901 -0.80302 -0.80625 -0.80873 -0.81043 -0.81137 -0.81153 -0.81093 -0.80957 -0.80743 -0.80453 -0.80086 -0.79642 -0.79122 -0.78525 -0.77851 -0.771 -0.76272 -0.75368 -0.74387 -0.73329 -0.72194 -0.70983 -0.69695 -0.68407 -0.67119 -0.65831 -0.64542 -0.63254 -0.61966 -0.60678 -0.5939 -0.58102 -0.56814 -0.55525 -0.54237 -0.52949 -0.51661 -0.50373 -0.49085 -0.47797 -0.46508 -0.4522 -0.43932 -0.42644 -0.41356 -0.40068 -0.3878 -0.37492 -0.36203 -0.34915 -0.33627 -0.32339 -0.31051 -0.29763 -0.28475 -0.27186 -0.25898 -0.2461 -0.23322 -0.22034 -0.20746 -0.19458 -0.18169 -0.16881 -0.15593 -0.14305 -0.13017 -0.11729 -0.10441 -0.091525 -0.078644 -0.065763 -0.052881 -0.04 -0.027119 -0.014237 -0.0013559 0.011525 0.024407 0.037288 0.050169 0.063051 0.075932 0.088814 0.10169 0.11458 0.12746 0.14034 0.15322 0.1661 0.17898 0.19186 0.20475 0.21763 0.23051 0.24339 0.25627 0.26915 0.28203 0.29492 0.3078 0.32068 0.33356 0.34644 0.35932 0.3722 0.38508 0.39797 0.41085 0.42373 0.43661 0.44949 0.46237 0.47525 0.48814 0.50102 0.5139 0.52678 0.53966 0.55254 0.56542 0.57831 0.59119 0.60407 0.61695 0.62983 0.64271 0.65559 0.66847 0.68136 0.69424 0.70712 0.72 0.73288 0.74576 0.75864 0.77153 0.78441 0.79729 0.81017 0.82305 0.83593 0.84881 0.86169 0.87458 0.88746 0.90034 0.91322 0.9261 0.93898 0.95186 0.96475 0.97763 0.99051 1.0034 1.0163 1.0292 1.042 1.0549 1.0678 1.0807 1.0936 1.1064 1.1193 1.1322 1.1451 1.158 1.1708 1.1837 1.1966 1.2095 1.2224 1.2353 1.2481 1.261 1.2739 1.2868 1.2997 1.3125 1.3254 1.3383 1.3512 1.3641 1.3769 1.3898 1.4027 1.4156 1.4285 1.4414 1.4542 1.4671 1.48 1.4929 1.5058 1.5186 1.5315 1.5444 1.5573 1.5702 1.5831 1.5959 1.6088 1.6217 1.6346 1.6475 1.6603 1.6732 1.6861 1.699 1.7119 1.7247 1.7376 1.7505 1.7634 1.7763 1.7892 1.802 1.8149 1.8278 1.8407 1.8536 1.8664 1.8793 1.8922 1.9051 1.918 1.9308 1.9437 1.9566 1.9695 1.9824 1.9953 2.0081 2.021 2.0339 2.0468 2.0597 2.0725 2.0854 2.0983 2.1112 2.1241 2.1369 2.1498 2.1627 2.1756 2.1885 2.2014 2.2142 2.2271 2.24 2.2529 2.2658 2.2786 2.2915 2.3044 2.3173 2.3302 2.3431 2.3559 2.3688 2.3817 2.3946 2.4075 2.4203 2.4332 2.4461 2.459 2.4719 2.4847 2.4976 2.5105 2.5234 2.5363 2.5492 2.562 2.5749 2.5878 2.6007 2.6136 2.6264 2.6393 2.6522 2.6651 2.678 2.6908 2.7037 2.7166 2.7295 2.7424 2.7553 2.7681 2.781 2.7939 2.8068 2.8197 2.8325 2.8454 2.8571 2.8674 2.8766 2.8844 2.8911 2.8964 2.9006 2.9034 2.9051 2.9054 2.9046 2.9024 2.8991 2.8944 2.8885 2.8814 2.873 2.8634 2.8525 2.8404 2.827 2.8123 2.7965 2.7793 2.7609 2.7425 2.7242 2.7058 2.6874 2.669 2.6506 2.6322 2.6138 2.5954 2.577 2.5586 2.5403 2.5219 2.5035 2.4851 2.4667 2.4483 2.4299 2.4115 2.3931 2.3747 2.3564 2.338 2.3196 2.3012 2.2828 2.2644 2.246 2.2276 2.2092 2.1908 2.1725 2.1541 2.1357 2.1173 2.0989 2.0805 2.0621 2.0437 2.0253 2.0069 1.9886 1.9702 1.9518 1.9334 1.915 1.8966 1.8782 1.8598 1.8414 1.8231 1.8047 1.7863 1.7679 1.7495 1.7311 1.7127 1.6943 1.6759 1.6575 1.6392 1.6208 1.6024 1.584 1.5656 1.5472 1.5288 1.5104 1.492 1.4736 1.4553 1.4369 1.4185 1.4001 1.3817 1.3633 1.3449 1.3265 1.3081 1.2897 1.2714 1.253 1.2346 1.2162 1.1978 1.1794 1.161 1.1426 1.1242 1.1058 1.0875 1.0691 1.0507 1.0323 1.0139 0.99551 0.97712 0.95873 0.94034 0.92195 0.90356 0.88517 0.86678 0.84839 0.83 0.81161 0.79322 0.77483 0.75644 0.73805 0.71966 0.70127 0.68288 0.66449 0.6461 0.62771 0.60932 0.59093 0.57254 0.55415 0.53576 0.51737 0.49898 0.48059 0.4622 0.44381 0.42542 0.40703 0.38864 0.37025 0.35186 0.33347 0.31508 0.29669 0.27831 0.25992 0.24153 0.22314 0.20475 0.18636 0.16797 0.14958 0.13119 0.1128 0.094407 0.076017 0.057627 0.039237 0.020847 0.0024576 -0.015932 -0.034322 -0.052712 -0.071102 -0.089492 -0.10788 -0.12627 -0.14466 -0.16305 -0.18144 -0.19983 -0.21822 -0.23661 -0.255 -0.27339 -0.29178 -0.31017 -0.32856 -0.34695 -0.36534 -0.38373 -0.40212 -0.42051 -0.4389 -0.45729 -0.47568 -0.49407 -0.51246 -0.53085 -0.54924 -0.56763 -0.58602 -0.60441 -0.6228 -0.64119 -0.65958 -0.67797 -0.69636 -0.71475 -0.73314 -0.75153 -0.76992 -0.78831 -0.80669 -0.82508 -0.84347 -0.86186 -0.88025 -0.89864 -0.91703 -0.93542 -0.95381 -0.9722 -0.99059 -1.009 -1.0274 -1.0458 -1.0642 -1.0825 -1.1009 -1.1193 -1.1377 -1.1561 -1.1745 -1.1929 -1.2113 -1.2297 -1.2481 -1.2664 -1.2848 -1.3032 -1.3216 -1.34 -1.3584 -1.3768 -1.3952 -1.4136 -1.4319 -1.4503 -1.4687 -1.4871 -1.5055 -1.5239 -1.5423 -1.5607 -1.5791 -1.5975 -1.6158 -1.6342 -1.6526 -1.671 -1.6894 -1.7078 -1.7262 -1.7446 -1.763 -1.7814 -1.7997 -1.8181 -1.8365 -1.8549 -1.8733 -1.8917 -1.9101 -1.9285 -1.9469 -1.9653 -1.9836 -2.002 -2.0204 -2.0388 -2.0572 -2.0756 -2.094 -2.1124 -2.1308 -2.1492 -2.1675 -2.1859 -2.2043 -2.2227 -2.2411 -2.2595 -2.2779 -2.2963 -2.3132 -2.3286 -2.3426 -2.3551 -2.3661 -2.3756 -2.3837 -2.3903 -2.3954 -2.399 -2.4012 -2.4018 -2.401 -2.3988 -2.395 -2.3898 -2.3831 -2.3749 -2.3653 -2.3541 -2.3415 -2.3275 -2.3119 -2.2949 -2.2764 -2.2579 -2.2393 -2.2208 -2.2023 -2.1838 -2.1653 -2.1468 -2.1283 -2.1098 -2.0913 -2.0728 -2.0543 -2.0358 -2.0173 -1.9988 -1.9802 -1.9617 -1.9432 -1.9247 -1.9062 -1.8877 -1.8692 -1.8507 -1.8322 -1.8137 -1.7952 -1.7767 -1.7582 -1.7397 -1.7211 -1.7026 -1.6841 -1.6656 -1.6471 -1.6286 -1.6101 -1.5916 -1.5731 -1.5546 -1.5361 -1.5176 -1.4991 -1.4806 -1.4621 -1.4435 -1.425 -1.4065 -1.388 -1.3695 -1.351 -1.3325 -1.314 -1.2955 -1.277 -1.2585 -1.24 -1.2215 -1.203 -1.1844 -1.1659 -1.1474 -1.1289 -1.1104 -1.0919 -1.0734 -1.0549 -1.0364 -1.0179 -0.99938 -0.98087 -0.96236 -0.94386 -0.92535 -0.90684 -0.88833 -0.86983 -0.85132 -0.83281 -0.81431 -0.7958 -0.77729 -0.75879 -0.74028 -0.72177 -0.70327 -0.68476 -0.66625 -0.64774 -0.62924 -0.61073 -0.59222 -0.57372 -0.55521 -0.5367 -0.5182 -0.49969 -0.48118 -0.46267 -0.44417 -0.42566 -0.40715 -0.38865 -0.37014 -0.35163 -0.33313 -0.31462 -0.29611 -0.2776 -0.2591 -0.24059 -0.22208 -0.20432 -0.18729 -0.17099 -0.15544 -0.14063 -0.12655 -0.11321 -0.10061 -0.08875 -0.077627 -0.067242 -0.057596 -0.048689 -0.04052 -0.033089 -0.026397 -0.020443 -0.015227 -0.01075 -0.0070113 -0.004011 -0.0017492 -0.00022575 0.00055928 0.00060588 0.00065249 0.00069909 0.0007457 0.00079231 0.00083891 0.00088552 0.00093213 0.00097873 0.0010253 0.0010719 0.0011186 0.0011652 0.0012118 0.0012584 0.001305 0.0013516 0.0013982 0.0014448 0.0014914 0.001538 0.0015846 0.0016312 0.0016778 0.0017244 0.001771 0.0018176 0.0018643 0.0019109 0.0019575 0.0020041 0.0020507 0.0020973 0.0021439 0.0021905 0.0022371 0.0022837 0.0023303 0.0023769 0.0024235 0.0024701 0.0025167 0.0025633 0.00261 0.0026566 0.0027032 0.0027498 0.0027964 0.002843 0.0028896 0.0029362 0.0029828 0.0030294 0.003076 0.0031226 0.0031692 0.0032158 0.0032624 0.003309 0.0033557 0.0034023 0.0034489 0.0034955 0.0035421 0.0035887 0.0036353 0.0036819 0.0037285 0.0037751 0.0038217 0.0038683 0.0039149 0.0039615 0.0040081 0.0040547 0.0041014 0.004148 0.0041946 0.0042412 0.0042878 0.0043344 0.004381 0.0044276 0.0044742 0.0045208 0.0045674 0.004614 0.0046606 0.0047072 0.0047538 0.0048004 0.0048471 0.0048937 0.0049403 0.0049869 0.0050335 0.0050801 0.0051267 0.0051733 0.0052199 0.0052665 0.0053131 0.0053597 0.0054063 0.0054529 0.0054995 0.0055461 0.0055928 0.0056394 0.005686 0.0057326 0.0057792 0.0058258 0.0058724 0.005919 0.0059656 0.0060122 0.0060588 0.0061054 0.006152 0.0061986 0.0062452 0.0062918 0.0063385 0.0063851 0.0064317 0.0064783 0.0065249 0.0065715 0.0066181 0.0066647 0.0067113 0.0067579 0.0068045 0.0068511 0.0068977 0.0069443 0.0069909 0.0070375 0.0070842 0.0071308 0.0071774 0.007224 0.0072706 0.0073172 0.0073638 0.0074104 0.007457 0.0075036 0.0075502 0.0075968 0.0076434 0.00769 0.0077366 0.0077832 0.0078299 0.0078765 0.0079231 0.0079697 0.0080163 0.0080629 0.0081095 0.0081561 0.0082027 0.0082493 0.0082959 0.0083425 0.0083891 0.0084357 0.0084823 0.008529 0.0085756 0.0086222 0.0086688 0.0087154 0.008762 0.0088086 0.0088552 0.0089018 0.0089484 0.008995 0.0090416 0.0090882 0.0091348 0.0091814 0.009228 0.0092747 0.0093213 0.0093679 0.0094145 0.0094611 0.0095077 0.0095543 0.0096009 0.0096475 0.0096941 0.0097407 0.0097873 0.0098339 0.0098805 0.0099271 0.0099737 0.01002 0.010067 0.010114 0.01016 0.010207 0.010253 0.0103 0.010347 0.010393 0.01044 0.010486 0.010533 0.01058 0.010626 0.010673 0.010719 0.010766 0.010813 0.010859 0.010906 0.010952 0.010999 0.011046 0.011092 0.011139 0.011186 0.011232 0.011279 0.011325 0.011372 0.011419 0.011465 0.011512 0.011558 0.011605 0.011652 0.011698 0.011745 0.011791 0.011838 0.011885 0.011931 0.011978 0.012024 0.012071 0.012118 0.012164 0.012211 0.012257 0.012304 0.012351 0.012397 0.012444 0.01249 0.012537 0.012584 0.01263 0.012677 0.012724 0.01277 0.012817 0.012863 0.01291 0.012957 0.013003 0.01305 0.013096 0.013143 0.01319 0.013236 0.013283 0.013329 0.013376 0.013423 0.013469 0.013516 0.013562 0.013609 0.013656 0.013702 0.013749 0.013795 0.013842 0.013889 0.013935 0.013982 0.014028 0.014075 0.014122 0.014168 0.014215 0.014262 0.014308 0.014355 0.014401 0.014448 0.014495 0.014541 0.014588 0.014634 0.014681 0.014728 0.014774 0.014821 0.014867 0.014914 0.014961 0.015007 0.015054 0.0151 0.015147 0.015194 0.01524 0.015287 0.015333 0.01538 0.015427 0.015473 0.01552 0.015566 0.015613 0.01566 0.015706 0.015753 0.0158 0.015846 0.015893 0.015939 0.015986 0.016033 0.016079 0.016126 0.016172 0.016219 0.016266 0.016312 0.016359 0.016405 0.016452 0.016499 0.016545 0.016592 0.016638 0.016685 0.016732 0.016778 0.016825 0.016871 0.016918 0.016965 0.017011 0.017058 0.017105 0.017151 0.017198 0.017244 0.017291 0.017338 0.017384 0.017431 0.017477 0.017524 0.017571 0.017617 0.017664 0.01771 0.017757 0.017804 0.01785 0.017897 0.017943 0.01799 0.018037 0.018083 0.01813 0.018176 0.018223 0.01827 0.018316 0.018363 0.018409 0.018456 0.018503 0.018549 0.018596 0.018643 0.018689 0.018736 0.018782 0.018829 0.018876 0.018922 0.018969 0.019015 0.019062 0.019109 0.019155 0.019202 0.019248 0.019295 0.019342 0.019388 0.019435 0.019481 0.019528 0.019575 0.019621 0.019668 0.019714 0.019761 0.019808 0.019854 0.019901 0.019947 0.019994 0.020041 0.020087 0.020134 0.020181 0.020227 0.020274 0.02032 0.020367 0.020414 0.02046 0.020507 0.020553 0.0206 0.020647 0.020693 0.02074 0.020786 0.020833 0.02088 0.020926 0.020973 0.021019 0.021066 0.021113 0.021159 0.021206 0.021252 0.021299 0.021346 0.021392 0.021439 0.021485 0.021532 0.021579 0.021625 0.021672 0.021719 0.021765 0.021812 0.021858 0.021905 0.021952 0.021998 0.022045 0.022091 0.022138 0.022185 0.022231 0.022278 0.022324 0.022371 0.022418 0.022464 0.022511 0.022557 0.022604 0.022651 0.022697 0.022744 0.02279 0.022837 0.022884 0.02293 0.022977 0.023024 0.02307 0.023117 0.023163 0.02321 0.023257 0.023303 0.02335 0.023396 0.023443 0.02349 0.023536 0.023583 0.023629 0.023676 0.023723 0.023769 0.023816 0.023862 0.023909 0.023956 0.024002 0.024049 0.024095 0.024142 0.024189 0.024235 0.024282 0.024328 0.024375 0.024422 0.024468 0.024515 0.024562 0.024608 0.024655 0.024701 0.024748 0.024795 0.024841 0.024888 0.024934 0.024981 0.025028 0.025074 0.025121 0.025167 0.025214 0.025261 0.025307 0.025354 0.0254 0.025447 0.025494 0.02554 0.025587 0.025633 0.02568 0.025727 0.025773 0.02582 0.025866 0.025913 0.02596 0.026006 0.026053 0.0261 0.026146 0.026193 0.026239 0.026286 0.026333 0.026379 0.026426 0.026472 0.026519 0.026566 0.026612 0.026659 0.026705 0.026752 0.026799 0.026845 0.026892 0.026938 0.026985 0.027032 0.027078 0.027125 0.027171 0.027218 0.027265 0.027311 0.027358 0.027404 0.027451 0.027498 0.027544 0.027591 0.027638 0.027684 0.027731 0.027777 0.027824 0.027871 0.027917 0.027964 0.02801 0.028057 0.028104 0.02815 0.028197 0.028243 0.02829 0.028337 0.028383 0.02843 0.028476 0.028523 0.02857 0.028616 0.028663 0.028709 0.028756 0.028803 0.028849 0.028896 0.028943 0.028989 0.029036 0.029082 0.029129 0.029176 0.029222 0.029269 0.029315 0.029362 0.029409 0.029455 0.029502 0.029548 0.029595 0.029642 0.029688 0.029735 0.029781 0.029828 0.029875 0.029921 0.029968 0.030014 0.030061 0.030108 0.030154 0.030201 0.030247 0.030294 0.030341 0.030387 0.030434 0.030481 0.030527 0.030574 0.03062 0.030667 0.030714 0.03076 0.030807 0.030853 0.0309 0.030947 0.030993 0.03104 0.031086 0.031133 0.03118 0.031226 0.031273 0.031319 0.031366 0.031413 0.031459 0.031506 0.031552 0.031599 0.031646 0.031692 0.031739 0.031785 0.031832 0.031879 0.031925 0.031972 0.032019 0.032065 0.032112 0.032158 0.032205 0.032252 0.032298 0.032345 0.032391 0.032438 0.032485 0.032531 0.032578 0.032624 0.032671 0.032718 0.032764 0.032811 0.032857 0.032904 0.032951 0.032997 0.033044 0.03309 0.033137 0.033184 0.03323 0.033277 0.033323 0.03337 0.033417 0.033463 0.03351 0.033557 0.033603 0.03365 0.033696 0.033743 0.03379 0.033836 0.033883 0.033929 0.033976 0.034023 0.034069 0.034116 0.034162 0.034209 0.034256 0.034302 0.034349 0.034395 0.034442 0.034489 0.034535 0.034582 0.034628 0.034675 0.034722 0.034768 0.034815 0.034862 0.034908 0.034955 0.035001 0.035048 0.035095 0.035141 0.035188 0.035234 0.035281 0.035328 0.035374 0.035421 0.035467 0.035514 0.035561 0.035607 0.035654 0.0357 0.035747 0.035794 0.03584 0.035887 0.035933 0.03598 0.036027 0.036073 0.03612 0.036166 0.036213 0.03626 0.036306 0.036353 0.0364 0.036446 0.036493 0.036539 0.036586 0.036633 0.036679 0.036726 0.036772 0.036819 0.036866 0.036912 0.036959 0.037005 0.037052 0.037099 0.037145 0.037192 0.037238 0.037285 0.037332 0.037378 0.037425 0.037471 0.037518 0.037565 0.037611 0.037658 0.037704 0.037751 0.037798 0.037844 0.037891 0.037938 0.037984 0.038031 0.038077 0.038124 0.038171 0.038217 0.038264 0.03831 0.038357 0.038404 0.03845 0.038497 0.038543 0.03859 0.038637 0.038683 0.03873 0.038776 0.038823 0.03887 0.038916 0.038963 0.039009 0.039056 0.039103 0.039149 0.039196 0.039242 0.039289 0.039336 0.039382 0.039429 0.039476 0.039522 0.039569 0.039615 0.039662 0.039709 0.039755 0.039802 0.039848 0.039895 0.039942 0.039988 0.040035 0.040081 0.040128 0.040175 0.040221 0.040268 0.040314 0.040361 0.040408 0.040454 0.040501 0.040547 0.040594 0.040641 0.040687 0.040734 0.04078 0.040827 0.040874 0.04092 0.040967 0.041014 0.04106 0.041107 0.041153 0.0412 0.041247 0.041293 0.04134 0.041386 0.041433 0.04148 0.041526 0.041573 0.041619 0.041666 0.041713 0.041759 0.041806 0.041852 0.041899 0.041946 0.041992 0.042039 0.042085 0.042132 0.042179 0.042225 0.042272 0.042319 0.042365 0.042412 0.042458 0.042505 0.042552 0.042598 0.042645 0.042691 0.042738 0.042785 0.042831 0.042878 0.042924 0.042971 0.043018 0.043064 0.043111 0.043157 0.043204 0.043251 0.043297 0.043344 0.04339 0.043437 0.043484 0.04353 0.043577 0.043623 0.04367 0.043717 0.043763 0.04381 0.043857 0.043903 0.04395 0.043996 0.044043 0.04409 0.044136 0.044183 0.044229 0.044276 0.044323 0.044369 0.044416 0.044462 0.044509 0.044556 0.044602 0.044649 0.044695 0.044742 0.044789 0.044835 0.044882 0.044928 0.044975 0.045022 0.045068 0.045115 0.045161 0.045208 0.045255 0.045301 0.045348 0.045395 0.045441 0.045488 0.045534 0.045581 0.045628 0.045674 0.045721 0.045767 0.045814 0.045861 0.045907 0.045954 0.046 0.046047 0.046094 0.04614 0.046187 0.046233 0.04628 0.046327 0.046373 0.04642 0.046466 0.046513 0.04656 0.046606 0.046653 0.046699 0.046746 0.046793 0.046839 0.046886 0.046933 0.046979 0.047026 0.047072 0.047119 0.047166 0.047212 0.047259 0.047305 0.047352 0.047399 0.047445 0.047492 0.047538 0.047585 0.047632 0.047678 0.047725 0.047771 0.047818 0.047865 0.047911 0.047958 0.048004 0.048051 0.048098 0.048144 0.048191 0.048238 0.048284 0.048331 0.048377 0.048424 0.048471 0.048517 0.048564 0.04861 0.048657 0.048704 0.04875 0.048797 0.048843 0.04889 0.048937 0.048983 0.04903 0.049076 0.049123 0.04917 0.049216 0.049263 0.049309 0.049356 0.049403 0.049449 0.049496 0.049542 0.049589 0.049636 0.049682 0.049729 0.049776 0.049822 0.049869 0.049915 0.049962 0.050009 0.050055 0.050102 0.050148 0.050195 0.050242 0.050288 0.050377 0.050509 0.050683 0.050899 0.051158 0.051459 0.051803 0.052189 0.052618 0.053089 0.053603 0.054159 0.054757 0.055398 0.056082 0.056807 0.057576 0.058386 0.05924 0.060135 0.061073 0.062054 0.063077 0.064142 0.06525 0.066358 0.067466 0.068574 0.069682 0.07079 0.071898 0.073006 0.074114 0.075222 0.076329 0.077437 0.078545 0.079653 0.080761 0.081869 0.082977 0.084085 0.085193 0.086301 0.087409 0.088517 0.089624 0.090732 0.09184 0.092948 0.094056 0.095164 0.096272 0.09738 0.098488 0.099596 0.1007 0.10181 0.10292 0.10403 0.10514 0.10624 0.10735 0.10846 0.10957 0.11067 0.11178 0.11289 0.114 0.11511 0.11621 0.11732 0.11843 0.11954 0.12065 0.12175 0.12286 0.12397 0.12508 0.12619 0.12729 0.1284 0.12951 0.13062 0.13173 0.13283 0.13394 0.13505 0.13616 0.13726 0.13837 0.13948 0.14059 0.1417 0.1428 0.14391 0.14502 0.14613 0.14724 0.14834 0.14945 0.15056 0.15167 0.15278 0.15388 0.15499 0.1561 0.15721 0.15832 0.15942 0.16053 0.16164 0.16275 0.16385 0.16496 0.16607 0.16718 0.16829 0.16939 0.1705 0.17161 0.17272 0.17383 0.17493 0.17604 0.17715 0.17826 0.17937 0.18047 0.18158 0.18269 0.1838 0.18491 0.18601 0.18712 0.18823 0.18934 0.19044 0.19155 0.19266 0.19377 0.19488 0.19598 0.19709 0.1982 0.19931 0.20042 0.20152 0.20263 0.20374 0.20485 0.20596 0.20706 0.20817 0.20928 0.21039 0.2115 0.2126 0.21371 0.21482 0.21593 0.21703 0.21814 0.21925 0.22036 0.22147 0.22257 0.22368 0.22479 0.2259 0.22701 0.22811 0.22922 0.23033 0.23144 0.23255 0.23365 0.23476 0.23587 0.23698 0.23809 0.23919 0.2403 0.24141 0.24252 0.24362 0.24473 0.24584 0.24695 0.24806 0.24916 0.25027 0.25138 0.25249 0.2536 0.2547 0.25581 0.25692 0.25803 0.25914 0.26024 0.26135 0.26246 0.26357 0.26468 0.26578 0.26689 0.268 0.26911 0.27021 0.27132 0.27243 0.27354 0.27465 0.27575 0.27686 0.27797 0.27908 0.28019 0.28129 0.2824 0.28351 0.28462 0.28573 0.28683 0.28794 0.28905 0.29016 0.29126 0.29237 0.29348 0.29459 0.2957 0.2968 0.29791 0.29902 0.30013 0.30124 0.30234 0.30345 0.30456 0.30567 0.30678 0.30788 0.30899 0.3101 0.31121 0.31232 0.31342 0.31453 0.31564 0.31675 0.31785 0.31896 0.32007 0.32118 0.32229 0.32339 0.3245 0.32561 0.32672 0.32783 0.32893 0.33004 0.33115 0.33226 0.33337 0.33447 0.33558 0.33669 0.3378 0.33891 0.34001 0.34112 0.34223 0.34334 0.34444 0.34555 0.34666 0.34777 0.34888 0.34998 0.35109 0.3522 0.35331 0.35442 0.35552 0.35663 0.35774 0.35885 0.35996 0.36106 0.36217 0.36328 0.36439 0.3655 0.3666 0.36771 0.36882 0.36993 0.37103 0.37214 0.37325 0.37436 0.37547 0.37657 0.37768 0.37879 0.3799 0.38101 0.38211 0.38322 0.38433 0.38544 0.38655 0.38765 0.38876 0.38987 0.39098 0.39209 0.39319 0.3943 0.39541 0.39652 0.39762 0.39873 0.39984 0.40095 0.40206 0.40316 0.40427 0.40538 0.40649 0.4076 0.4087 0.40981 0.41092 0.41203 0.41314 0.41424 0.41535 0.41646 0.41757 0.41868 0.41978 0.42089 0.422 0.42311 0.42421 0.42532 0.42643 0.42754 0.42865 0.42975 0.43086 0.43197 0.43308 0.43419 0.43529 0.4364 0.43751 0.43862 0.43973 0.44083 0.44194 0.44305 0.44416 0.44527 0.44637 0.44748 0.44859 0.4497 0.4508 0.45191 0.45302 0.45413 0.45524 0.45634 0.45745 0.45856 0.45967 0.46078 0.46188 0.46299 0.4641 0.46521 0.46632 0.46742 0.46853 0.46964 0.47075 0.47186 0.47296 0.47407 0.47518 0.47629 0.47739 0.4785 0.47961 0.48072 0.48183 0.48293 0.48404 0.48515 0.48626 0.48737 0.48847 0.48958 0.49069 0.4918 0.49291 0.49401 0.49512 0.49623 0.49734 0.49845 0.49955 0.50066 0.50177 0.50288 0.50398 0.50509 0.5062 0.50731 0.50842 0.50952 0.51063 0.51174 0.51285 0.51396 0.51506 0.51617 0.51728 0.51839 0.5195 0.5206 0.52162 0.52255 0.5234 0.52415 0.52481 0.52539 0.52588 0.52628 0.52659 0.52681 0.52695 0.52699 0.52695 0.52682 0.5266 0.52629 0.52589 0.52541 0.52483 0.52417 0.52342 0.52258 0.52165 0.52063 0.51953 0.51842 0.51732 0.51621 0.51511 0.514 0.5129 0.51179 0.51069 0.50958 0.50847 0.50737 0.50626 0.50516 0.50405 0.50295 0.50184 0.50074 0.49963 0.49853 0.49742 0.49632 0.49521 0.4941 0.493 0.49189 0.49079 0.48968 0.48858 0.48747 0.48637 0.48526 0.48416 0.48305 0.48195 0.48084 0.47973 0.47863 0.47752 0.47642 0.47531 0.47421 0.4731 0.472 0.47089 0.46979 0.46868 0.46758 0.46647 0.46536 0.46426 0.46315 0.46205 0.46094 0.45984 0.45873 0.45763 0.45652 0.45542 0.45431 0.45321 0.4521 0.45099 0.44989 0.44878 0.44768 0.44657 0.44547 0.44436 0.44326 0.44215 0.44105 0.43994 0.43884 0.43773 0.43662 0.43552 0.43441 0.43331 0.4322 0.4311 0.42999 0.42889 0.42778 0.42668 0.42557 0.42447 0.42336 0.42225 0.42115 0.42004 0.41894 0.41783 0.41673 0.41562 0.41452 0.41341 0.41231 0.4112 0.4101 0.40899 0.40789 0.40678 0.40567 0.40457 0.40346 0.40236 0.40125 0.40015 0.39904 0.39794 0.39683 0.39573 0.39462 0.39352 0.39241 0.3913 0.3902 0.38909 0.38799 0.38688 0.38578 0.38467 0.38357 0.38246 0.38136 0.38025 0.37915 0.37804 0.37693 0.37583 0.37472 0.37362 0.37251 0.37141 0.3703 0.3692 0.36809 0.36699 0.36588 0.36478 0.36367 0.36256 0.36146 0.36035 0.35925 0.35814 0.35704 0.35593 0.35483 0.35372 0.35262 0.35151 0.35041 0.3493 0.34819 0.34709 0.34598 0.34488 0.34377 0.34267 0.34156 0.34046 0.33935 0.33825 0.33714 0.33604 0.33493 0.33382 0.33272 0.33161 0.33051 0.3294 0.3283 0.32719 0.32609 0.32498 0.32388 0.32277 0.32167 0.32056 0.31945 0.31835 0.31724 0.31614 0.31503 0.31393 0.31282 0.31172 0.31061 0.30951 0.3084 0.3073 0.30619 0.30508 0.30398 0.30287 0.30177 0.30066 0.29956 0.29845 0.29735 0.29624 0.29514 0.29403 0.29293 0.29182 0.29071 0.28961 0.2885 0.2874 0.28629 0.28519 0.28408 0.28298 0.28187 0.28077 0.27966 0.27856 0.27745 0.27634 0.27524 0.27413 0.27303 0.27192 0.27082 0.26971 0.26861 0.2675 0.2664 0.26529 0.26419 0.26308 0.26197 0.26087 0.25976 0.25866 0.25755 0.25645 0.25534 0.25424 0.25313 0.25203 0.25092 0.24982 0.24871 0.24761 0.2465 0.24539 0.24429 0.24318 0.24208 0.24097 0.23987 0.23876 0.23766 0.23655 0.23545 0.23434 0.23324 0.23213 0.23102 0.22992 0.22881 0.22771 0.2266 0.2255 0.22439 0.22329 0.22218 0.22108 0.21997 0.21887 0.21776 0.21665 0.21555 0.21444 0.21334 0.21223 0.21113 0.21002 0.20892 0.20781 0.20671 0.2056 0.2045 0.20339 0.20228 0.20118 0.20007 0.19897 0.19786 0.19676 0.19565 0.19455 0.19344 0.19234 0.19123 0.19013 0.18902 0.18791 0.18681 0.1857 0.1846 0.18349 0.18239 0.18128 0.18018 0.17907 0.17797 0.17686 0.17576 0.17465 0.17354 0.17244 0.17133 0.17023 0.16912 0.16802 0.16691 0.16581 0.1647 0.1636 0.16249 0.16139 0.16028 0.15917 0.15807 0.15696 0.15586 0.15475 0.15365 0.15254 0.15144 0.15033 0.14923 0.14812 0.14702 0.14591 0.1448 0.1437 0.14259 0.14149 0.14038 0.13928 0.13817 0.13707 0.13596 0.13486 0.13375 0.13265 0.13154 0.13043 0.12933 0.12822 0.12712 0.12601 0.12491 0.1238 0.1227 0.12159 0.12049 0.11938 0.11828 0.11717 0.11606 0.11496 0.11385 0.11275 0.11164 0.11054 0.10943 0.10833 0.10722 0.10612 0.10501 0.10391 0.1028 0.10169 0.10059 0.099484 0.098379 0.097273 0.096168 0.095063 0.093957 0.092852 0.091746 0.090641 0.089536 0.08843 0.087325 0.08622 0.085114 0.084009 0.082903 0.081798 0.080693 0.079587 0.078482 0.077377 0.076271 0.075166 0.07406 0.072955 0.07185 0.070744 0.069639 0.068534 0.067428 0.066323 0.065217 0.064112 0.063043 0.062009 0.061011 0.06005 0.059124 0.058234 0.05738 0.056562 0.05578 0.055033 0.054323 0.053649 0.05301 0.052408 0.051841 0.05131 0.050815 0.050356 0.049933 0.049546 0.049195 0.04888 0.0486 0.048357 0.048149 0.047942 0.047734 0.047527 0.047319 0.047112 0.046904 0.046697 0.046489 0.046282 0.046074 0.045866 0.045659 0.045451 0.045244 0.045036 0.044829 0.044621 0.044414 0.044206 0.043999 0.043791 0.043584 0.043376 0.043168 0.042961 0.042753 0.042546 0.042338 0.042131 0.041923 0.041716 0.041508 0.041301 0.041093 0.040886 0.040678 0.04047 0.040263 0.040055 0.039848 0.03964 0.039433 0.039225 0.039018 0.03881 0.038603 0.038395 0.038187 0.03798 0.037772 0.037565 0.037357 0.03715 0.036942 0.036735 0.036527 0.03632 0.036112 0.035905 0.035697 0.035489 0.035282 0.035074 0.034867 0.034659 0.034452 0.034244 0.034037 0.033829 0.033622 0.033414 0.033207 0.032999 0.032791 0.032584 0.032376 0.032169 0.031961 0.031754 0.031546 0.031339 0.031131 0.030924 0.030716 0.030508 0.030301 0.030093 0.029886 0.029678 0.029471 0.029263 0.029056 0.028848 0.028641 0.028433 0.028226 0.028018 0.02781 0.027603 0.027395 0.027188 0.02698 0.026773 0.026565 0.026358 0.02615 0.025943 0.025735 0.025527 0.02532 0.025112 0.024905 0.024697 0.02449 0.024282 0.024075 0.023867 0.02366 0.023452 0.023245 0.023037 0.022829 0.022622 0.022414 0.022207 0.021999 0.021792 0.021584 0.021377 0.021169 0.020962 0.020754 0.020547 0.020339 0.020131 0.019924 0.019716 0.019509 0.019301 0.019094 0.018886 0.018679 0.018471 0.018264 0.018056 0.017848 0.017641 0.017433 0.017226 0.017018 0.016811 0.016603 0.016396 0.016188 0.015981 0.015773 0.015566 0.015358 0.01515 0.014943 0.014735 0.014528 0.01432 0.014113 0.013905 0.013698 0.01349 0.013283 0.013075 0.012868 0.01266 0.012452 0.012245 0.012037 0.01183 0.011622 0.011415 0.011207 0.011 0.010792 0.010585 0.010377 0.010169 0.009962 0.0097544 0.0095469 0.0093393 0.0091318 0.0089242 0.0087167 0.0085092 0.0083016 0.0080941 0.0078865 0.007679 0.0074715 0.0072639 0.0070564 0.0068488 0.0066413 0.0064338 0.0062262 0.0060187 0.0058111 0.0056036 0.0053961 0.0051885 0.004981 0.0047734 0.0045659 0.0043584 0.0041508 0.0039433 0.0037357 0.0035282 0.0033207 0.0031131 0.0029056 0.002698 0.0024905 0.0022912 0.0021003 0.0019177 0.0017433 0.0015773 0.0014196 0.0012701 0.001129 0.0009962 0.00087167 0.00075545 0.00064753 0.00054791 0.00045659 0.00037357 0.00029886 0.00023245 0.00017433 0.00012452 8.3016e-05 4.981e-05 2.4905e-05 8.3016e-06 0 0 0 0 0 0 0 0 0 0 0 0 0 0 0 0 0 0 0 0 0 0 0 0 0 0 0 0 0 0 0 0 0 0 0 0 0 0 0 0 0 0 0 0 0 0 0 0 0 0 0 0 0 0 0 0 0 0 0 0 0 0 0 0 0 0 0 0 0 0 0 0 0 0 0 0 0 0 0 0 0 0 0 0 0 0 0 0 0 0 0 0 0 0 0 0 0 0 0 0 0 0 0 0 0 0 0 0 0 0 0 0 0 0 0 0 0 0 0 0 0 0 0 0 0 0 0 0 0 0 0 0 0 0 0 0 0 0 0 0 0 0 0 0 0 0 0 0 0 0 0 0 0 0 0 0 0 0 0 0 0 0 0 0 0 0 0 0 0 0 0 0 0 0 0 0 0 0 0 0 0 0 0 0 0 0 0 0 0 0 0 0 0 0 0 0 0 0 0 0 0 0 0 0 0 0 0 0 0 0 0 0 0 0 0 0 0 0 0 0 0 0 0 0 0 0 0 0 0 0 0 0 0 0 0 0 0 0 0 0 0 0 0 0 0 0 0 0 0 0 0 0 0 0 0 0 0 0 0 0 0 0 0 0 0 0 0 0 0 0 0 0 0 0 0 0 0 0 0 0 0 0 0 0 0 0 0 0 0 0 0 0 0 0 0 0 0 0 0 0 0 0 0 0 0 0 0 0 0 0 0 0 0 0 0 0 0 0 0 0 0 0 0 0 0 0 0 0 0 0 0 0 0 0 0 0 0 0 0 0 0 0 0 0 0 0 0 0 0 0 0 0 0 0 0 0 0 0 0 0 0 0 0 0 0 0 0 0 0 0 0 0 0 0 0 0 0 0 0 0 0 0 0 0 0 0 0 0 0 0 0 0 0 0 0 0 0 0 0 0 0 0 0 0 0 0 0 0 0 0 0 0 0 0 0 0 0 0 0 0 0 0 0 0 0 0 0 0 0 0 0 0 0 0 0 0 0 0 0 0 0 0 0 0 0 0 0 0 0 0 0 0 0 0 0 0 0 0 0 0 0 0 0 0 0 0 0 0 0 0 0 0 0 0 0 0 0 0 0 0 0 0 0 0 0 0 0 0 0 0 0 0 0 0 0 0 0 0 0 0 0 0 0 0 0 0 0 0 0 0 0 0 0 0 0 0 0 0 0 0 0 0 0 0 0 0 0 0 0 0 0 0 0 0 0 0 0 0 0 0 0 0 0 0 0 0 0 0 0 0 0 0 0 0 0 0 0 0 0 0 0 0 0 0 0 0 0 0 0 0 0 0 0 0 0 0 0 0 0 0 0 0 0 0 0 0 0 0 0 0 0 0 0 0 0 0 0 0 0 0 0 0 0 0 0 0 0 0 0 0 0 0 0 0 0 0 0 0 0 0 0 0 0 0 0 0 0 0 0 0 0 0 0 0 0 0 0 0 0 0 0 0 0 0 0 0 0 0 0 0 0 0 0 0 0 0 0 0 0 0 0 0 0 0 0 0 0 0 0 0 0 0 0 0 0 0 0 0 0 0 0 0 0 0 0 0 0 0 0 0 0 0 0 0 0 0 0 0 0 0 0 0 0 0 0 0 0 0 0 0 0 0 0 0 0 0 0 0 0 0 0 0 0 0 0 0 0 0 0 0 0 0 0 0 0 0 0 0 0 0 0 0 0 0 0 0 0 0 0 0 0 0 0 0 0 0 0 0 0 0 0 0 0 0 0 0 0 0 0 0 0 0 0 0 0 0 0 0 0 0 0 0 0 0 0 0 0 0 0 0 0 0 0 0 0 0 0 0 0 0 0 0 0 0 0 0 0 0 0 0 0 0 0 0 0 0 0 0 0 0 0 0 0 0 0 0 0 0 0 0 0 0 0 0 0 0 0 0 0 0 0 0 0 0 0 0 0 0 0 0 0 0 0 0 0 0 0 0 0 0 0 0 0 0 0 0 0 0 0 0 0 0 0 0 0 0 0 0 0 0 0 0 0 0 0 0 0 0 0 0 0 0 0 0 0 0 0 0 0 0 0 0 0 0 0 0 0 0 0 0 0 0 0 0 0 0 0 0 0 0 0 0 0 0 0 0 0 0 0 0 0 0 0 0 0 0 0 0 0 0 0 0 0 0 0 0 0 0 0 0 0 0 0 0 0 0 0 0 0 0 0 0 0 0 0 0 0 0 0 0 0 0 0 0 0 0 0 0 0 0 0 0 0 0 0 0 0 0 0 0 0 0 0 0 0 0 0 0 0 0 0 0 0 0 0 0 0 0 0 0 0 0 0 0 0 0 0 0 0 0 0 0 0 0 0 0 0 0 0 0 0 0 0 0 0 0 0 0 0 0 0 0 0 0 0 0 0 0 0 0 0 0 0 0 0 0 0 0 0 0 0 0 0 0 0 0 0 0 0 0 0 0 0 0 0 0 0 0 0 0 0 0 0 0 0 0 0 0 0 0 0 0 0 0 0 0 0 0 0 0 0 0 0 0 0 0 0 0 0 0 0 0 0 0 0 0 0 0 0 0 0.00082903 0.00082903 0.00082903 0.00082903 0.00082903 0.00082903 0.00082903 0.00082903 0.00082903 0.00082903 0.00082903 0.00082903 0.00082903 0.00089812 0.00096721 0.0010363 0.0011054 0.0011745 0.0012436 0.0013126 0.0013817 0.0014508 0.0015199 0.001589 0.0016581 0.0017272 0.0017962 0.0018653 0.0019344 0.0020035 0.0020726 0.0021417 0.0022108 0.0022798 0.0023489 0.002418 0.0024871 0.0025562 0.0026253 0.0026944 0.0027634 0.0028325 0.0029016 0.0029707 0.0030398 0.0031089 0.003178 0.0032471 0.0033161 0.0033852 0.0034543 0.0035234 0.0035925 0.0036616 0.0037307 0.0037997 0.0038688 0.0039379 0.004007 0.0040761 0.0041452 0.0042143 0.0042833 0.0043524 0.0044215 0.0044906 0.0045597 0.0046288 0.0046979 0.0047669 0.004836 0.0049051 0.0049742 0.0050433 0.0051124 0.0051815 0.0052506 0.0053196 0.0053887 0.0054578 0.0055269 0.005596 0.0056651 0.0057342 0.0058032 0.0058723 0.0059414 0.0060105 0.0060796 0.0061487 0.0062178 0.0062868 0.0063559 0.006425 0.0064941 0.0065632 0.0066323 0.0067014 0.0067704 0.0068395 0.0069086 0.0069777 0.0070468 0.0071159 0.007185 0.0072541 0.0073231 0.0073922 0.0074613 0.0075304 0.0075995 0.0076686 0.0077377 0.0078067 0.0078758 0.0079449 0.008014 0.0080831 0.0081522 0.0082213 0.0082903 0.0083594 0.0084285 0.0084976 0.0085667 0.0086358 0.0087049 0.0087739 0.008843 0.0089121 0.0089812 0.0090503 0.0091194 0.0091885 0.0092576 0.0093266 0.0093957 0.0094648 0.0095339 0.009603 0.0096721 0.0097412 0.0098102 0.0098793 0.0099484 0.010018 0.010087 0.010156 0.010225 0.010294 0.010363 0.010432 0.010501 0.01057 0.010639 0.010708 0.010777 0.010847 0.010916 0.010985 0.011054 0.011123 0.011192 0.011261 0.01133 0.011399 0.011468 0.011537 0.011606 0.011676 0.011745 0.011814 0.011883 0.011952 0.012021 0.01209 0.012159 0.012228 0.012297 0.012366 0.012436 0.012505 0.012574 0.012643 0.012712 0.012781 0.01285 0.012919 0.012988 0.013057 0.013126 0.013195 0.013265 0.013334 0.013403 0.013472 0.013541 0.01361 0.013679 0.013748 0.013817 0.013886 0.013955 0.014025 0.014094 0.014163 0.014232 0.014301 0.01437 0.014439 0.014508 0.014577 0.014646 0.014715 0.014784 0.014854 0.014923 0.014992 0.015061 0.01513 0.015199 0.015268 0.015337 0.015406 0.015475 0.015544 0.015613 0.015683 0.015752 0.015821 0.01589 0.015959 0.016028 0.016097 0.016166 0.016235 0.016304 0.016373 0.016443 0.016512 0.016581 0.01665 0.016719 0.016788 0.016857 0.016926 0.016995 0.017064 0.017133 0.017202 0.017272 0.017341 0.01741 0.017479 0.017548 0.017617 0.017686 0.017755 0.017824 0.017893 0.017962 0.018032 0.018101 0.01817 0.018239 0.018308 0.018377 0.018446 0.018515 0.018584 0.018653 0.018722 0.018791 0.018861 0.01893 0.018999 0.019068 0.019137 0.019206 0.019275 0.019344 0.019413 0.019482 0.019551 0.01962 0.01969 0.019759 0.019828 0.019897 0.019966 0.020035 0.020104 0.020173 0.020242 0.020311 0.02038 0.02045 0.020519 0.020588 0.020657 0.020726 0.020795 0.020864 0.020933 0.021002 0.021071 0.02114 0.021209 0.021279 0.021348 0.021417 0.021486 0.021555 0.021624 0.021693 0.021762 0.021831 0.0219 0.021969 0.022039 0.022108 0.022177 0.022246 0.022315 0.022384 0.022453 0.022522 0.022591 0.02266 0.022729 0.022798 0.022868 0.022937 0.023006 0.023075 0.023144 0.023213 0.023282 0.023351 0.02342 0.023489 0.023558 0.023627 0.023697 0.023766 0.023835 0.023904 0.023973 0.024042 0.024111 0.02418 0.024249 0.024318 0.024387 0.024457 0.024526 0.024595 0.024752 0.024997 0.02533 0.025751 0.02626 0.026857 0.027542 0.028315 0.029176 0.030125 0.031162 0.032287 0.0335 0.034801 0.03619 0.037667 0.039232 0.040885 0.042626 0.044455 0.046372 0.048377 0.05047 0.052651 0.05492 0.057189 0.059458 0.061727 0.063996 0.066265 0.068534 0.070802 0.073071 0.07534 0.077609 0.079878 0.082147 0.084416 0.086685 0.088954 0.091223 0.093492 0.095761 0.09803 0.1003 0.10257 0.10484 0.10711 0.10937 0.11164 0.11391 0.11618 0.11845 0.12072 0.12299 0.12526 0.12753 0.12979 0.13206 0.13433 0.1366 0.13887 0.14114 0.14341 0.14568 0.14795 0.15022 0.15248 0.15475 0.15702 0.15929 0.16156 0.16383 0.1661 0.16837 0.17064 0.1729 0.17517 0.17744 0.17971 0.18198 0.18425 0.18652 0.18879 0.19106 0.19333 0.19559 0.19786 0.20013 0.2024 0.20467 0.20694 0.20921 0.21148 0.21375 0.21601 0.21828 0.22055 0.22282 0.22509 0.22736 0.22963 0.2319 0.23417 0.23643 0.2387 0.24097 0.24324 0.24551 0.24778 0.25005 0.25232 0.25459 0.25686 0.25912 0.26139 0.26366 0.26593 0.2682 0.27047 0.27274 0.27501 0.27728 0.27954 0.28181 0.28408 0.28635 0.28862 0.29089 0.29316 0.29543 0.2977 0.29997 0.30223 0.3045 0.30677 0.30904 0.31131 0.31358 0.31585 0.31812 0.32039 0.32265 0.32492 0.32719 0.32946 0.33173 0.334 0.33627 0.33854 0.34081 0.34307 0.34534 0.34761 0.34988 0.35215 0.35442 0.35669 0.35896 0.36123 0.3635 0.36576 0.36803 0.3703 0.37257 0.37484 0.37711 0.37938 0.38165 0.38392 0.38618 0.38845 0.39072 0.39299 0.39526 0.39753 0.3998 0.40207 0.40434 0.40661 0.40887 0.41114 0.41341 0.41568 0.41795 0.42022 0.42249 0.42476 0.42703 0.42929 0.43156 0.43383 0.4361 0.43837 0.44064 0.44291 0.44518 0.44745 0.44971 0.45198 0.45425 0.45652 0.45879 0.46106 0.46333 0.4656 0.46787 0.47014 0.4724 0.47467 0.47694 0.47921 0.48148 0.48375 0.48602 0.48829 0.49056 0.49282 0.49509 0.49736 0.49963 0.5019 0.50417 0.50644 0.50871 0.51098 0.51325 0.51551 0.51778 0.52005 0.52232 0.52459 0.52686 0.52913 0.5314 0.53367 0.53593 0.5382 0.54047 0.54274 0.54501 0.54728 0.54955 0.55182 0.55409 0.55635 0.55862 0.56089 0.56316 0.56543 0.5677 0.56997 0.57224 0.57451 0.57678 0.57904 0.58131 0.58358 0.58585 0.58812 0.59039 0.59266 0.59493 0.5972 0.59946 0.60173 0.604 0.60627 0.60854 0.61081 0.61308 0.61535 0.61762 0.61989 0.62215 0.62442 0.62669 0.62896 0.63123 0.6335 0.63577 0.63804 0.64031 0.64257 0.64484 0.64711 0.64938 0.65165 0.65392 0.65619 0.65846 0.66073 0.66299 0.66526 0.66753 0.6698 0.67207 0.67434 0.67661 0.67888 0.68115 0.68342 0.68568 0.68795 0.69022 0.69249 0.69476 0.69703 0.6993 0.70157 0.70384 0.7061 0.70837 0.71064 0.71291 0.71518 0.71745 0.71972 0.72199 0.72426 0.72653 0.72879 0.73106 0.73333 0.7356 0.73787 0.74014 0.74241 0.74468 0.74695 0.74921 0.75148 0.75375 0.75602 0.75829 0.76056 0.76283 0.7651 0.76737 0.76964 0.7719 0.77417 0.77644 0.77871 0.78098 0.78325 0.78552 0.78779 0.79006 0.79232 0.79459 0.79686 0.79913 0.8014 0.80367 0.80594 0.80821 0.81048 0.81274 0.81501 0.81728 0.81955 0.82182 0.82409 0.82636 0.82863 0.8309 0.83317 0.83543 0.8377 0.83997 0.84224 0.84451 0.84678 0.84905 0.85132 0.85359 0.85585 0.85812 0.86039 0.86266 0.86493 0.8672 0.86947 0.87174 0.87401 0.87628 0.87854 0.88081 0.88308 0.88535 0.88762 0.88989 0.89216 0.89443 0.8967 0.89896 0.90123 0.9035 0.90577 0.90804 0.91031 0.91258 0.91485 0.91712 0.91938 0.92165 0.92392 0.92619 0.92846 0.93073 0.933 0.93527 0.93754 0.93981 0.94207 0.94434 0.94661 0.94888 0.95115 0.95342 0.95569 0.95796 0.96023 0.96249 0.96476 0.96703 0.9693 0.97157 0.97384 0.97611 0.97838 0.98065 0.98292 0.98518 0.98745 0.98972 0.99181 0.99371 0.99544 0.99698 0.99834 0.99952 1.0005 1.0013 1.002 1.0024 1.0027 1.0028 1.0027 1.0024 1.0019 1.0013 1.0005 0.99949 0.9983 0.99694 0.99539 0.99366 0.99175 0.98966 0.98739 0.98511 0.98284 0.98056 0.97829 0.97601 0.97374 0.97147 0.96919 0.96692 0.96464 0.96237 0.9601 0.95782 0.95555 0.95327 0.951 0.94872 0.94645 0.94418 0.9419 0.93963 0.93735 0.93508 0.93281 0.93053 0.92826 0.92598 0.92371 0.92144 0.91916 0.91689 0.91461 0.91234 0.91006 0.90779 0.90552 0.90324 0.90097 0.89869 0.89642 0.89415 0.89187 0.8896 0.88732 0.88505 0.88277 0.8805 0.87823 0.87595 0.87368 0.8714 0.86913 0.86686 0.86458 0.86231 0.86003 0.85776 0.85549 0.85321 0.85094 0.84866 0.84639 0.84411 0.84184 0.83957 0.83729 0.83502 0.83274 0.83047 0.8282 0.82592 0.82365 0.82137 0.8191 0.81682 0.81455 0.81228 0.81 0.80773 0.80545 0.80318 0.80091 0.79863 0.79636 0.79408 0.79181 0.78954 0.78726 0.78499 0.78271 0.78044 0.77816 0.77589 0.77362 0.77134 0.76907 0.76679 0.76452 0.76225 0.75997 0.7577 0.75542 0.75315 0.75087 0.7486 0.74633 0.74405 0.74178 0.7395 0.73723 0.73496 0.73268 0.73041 0.72813 0.72586 0.72358 0.72131 0.71904 0.71676 0.71449 0.71221 0.70994 0.70767 0.70539 0.70312 0.70084 0.69857 0.6963 0.69402 0.69175 0.68947 0.6872 0.68492 0.68265 0.68038 0.6781 0.67583 0.67355 0.67128 0.66901 0.66673 0.66446 0.66218 0.65991 0.65763 0.65536 0.65309 0.65081 0.64854 0.64626 0.64399 0.64172 0.63944 0.63717 0.63489 0.63262 0.63035 0.62807 0.6258 0.62352 0.62125 0.61897 0.6167 0.61443 0.61215 0.60988 0.6076 0.60533 0.60306 0.60078 0.59851 0.59623 0.59396 0.59168 0.58941 0.58714 0.58486 0.58259 0.58031 0.57804 0.57577 0.57349 0.57122 0.56894 0.56667 0.5644 0.56212 0.55985 0.55757 0.5553 0.55302 0.55075 0.54848 0.5462 0.54393 0.54165 0.53938 0.53711 0.53483 0.53256 0.53028 0.52801 0.52573 0.52346 0.52119 0.51891 0.51664 0.51436 0.51209 0.50982 0.50754 0.50527 0.50299 0.50072 0.49845 0.49617 0.4939 0.49162 0.48935 0.48707 0.4848 0.48253 0.48025 0.47798 0.4757 0.47343 0.47116 0.46888 0.46661 0.46433 0.46206 0.45978 0.45751 0.45524 0.45296 0.45069 0.44841 0.44614 0.44387 0.44159 0.43932 0.43704 0.43477 0.43249 0.43022 0.42795 0.42567 0.4234 0.42112 0.41885 0.41658 0.4143 0.41203 0.40975 0.40748 0.40521 0.40293 0.40066 0.39838 0.39611 0.39383 0.39156 0.38929 0.38701 0.38474 0.38246 0.38019 0.37792 0.37564 0.37337 0.37109 0.36882 0.36654 0.36427 0.362 0.35972 0.35745 0.35517 0.3529 0.35063 0.34835 0.34608 0.3438 0.34153 0.33926 0.33698 0.33471 0.33243 0.33016 0.32788 0.32561 0.32334 0.32106 0.31879 0.31651 0.31424 0.31197 0.30969 0.30742 0.30514 0.30287 0.30059 0.29832 0.29605 0.29377 0.2915 0.28922 0.28695 0.28468 0.2824 0.28013 0.27785 0.27558 0.27331 0.27103 0.26876 0.26648 0.26421 0.26193 0.25966 0.25739 0.25511 0.25284 0.25056 0.24829 0.24602 0.24374 0.24147 0.23919 0.23692 0.23464 0.23237 0.2301 0.22782 0.22555 0.22327 0.221 0.21873 0.21645 0.21418 0.2119 0.20963 0.20735 0.20508 0.20281 0.20053 0.19826 0.19598 0.19371 0.19144 0.18916 0.18689 0.18461 0.18234 0.18007 0.17779 0.17552 0.17324 0.17097 0.16869 0.16642 0.16415 0.16187 0.1596 0.15732 0.15505 0.15278 0.1505 0.14823 0.14595 0.14368 0.1414 0.13913 0.13686 0.13458 0.13231 0.13003 0.12776 0.12549 0.12321 0.12094 0.11866 0.11639 0.11412 0.11184 0.10957 0.10729 0.10502 0.10274 0.10047 0.098196 0.095922 0.093648 0.091374 0.0891 0.086826 0.084551 0.082277 0.080003 0.077729 0.075455 0.073181 0.070907 0.068632 0.066358 0.064084 0.06181 0.059536 0.057262 0.054988 0.052713 0.050528 0.048432 0.046426 0.044508 0.042679 0.04094 0.039289 0.037728 0.036256 0.034872 0.033578 0.032374 0.031258 0.030231 0.029293 0.028445 0.027685 0.027015 0.026434 0.025942 0.025538 0.025225 0.025 0.024864 0.024817 0.024771 0.024724 0.024677 0.024631 0.024584 0.024537 0.024491 0.024444 0.024397 0.024351 0.024304 0.024258 0.024211 0.024164 0.024118 0.024071 0.024024 0.023978 0.023931 0.023884 0.023838 0.023791 0.023744 0.023698 0.023651 0.023604 0.023558 0.023511 0.023464 0.023418 0.023371 0.023325 0.023278 0.023231 0.023185 0.023138 0.023091 0.023045 0.022998 0.022951 0.022905 0.022858 0.022811 0.022765 0.022718 0.022671 0.022625 0.022578 0.022531 0.022485 0.022438 0.022392 0.022345 0.022298 0.022252 0.022205 0.022158 0.022112 0.022065 0.022018 0.021972 0.021925 0.021878 0.021832 0.021785 0.021738 0.021692 0.021645 0.021599 0.021552 0.021505 0.021459 0.021412 0.021365 0.021319 0.021272 0.021225 0.021179 0.021132 0.021085 0.021039 0.020992 0.020945 0.020899 0.020852 0.020805 0.020759 0.020712 0.020666 0.020619 0.020572 0.020526 0.020479 0.020432 0.020386 0.020339 0.020292 0.020246 0.020199 0.020152 0.020106 0.020059 0.020012 0.019966 0.019919 0.019872 0.019826 0.019779 0.019733 0.019686 0.019639 0.019593 0.019546 0.019499 0.019453 0.019406 0.019359 0.019313 0.019266 0.019219 0.019173 0.019126 0.019079 0.019033 0.018986 0.01894 0.018893 0.018846 0.0188 0.018753 0.018706 0.01866 0.018613 0.018566 0.01852 0.018473 0.018426 0.01838 0.018333 0.018286 0.01824 0.018193 0.018146 0.0181 0.018053 0.018007 0.01796 0.017913 0.017867 0.01782 0.017773 0.017727 0.01768 0.017633 0.017587 0.01754 0.017493 0.017447 0.0174 0.017353 0.017307 0.01726 0.017213 0.017167 0.01712 0.017074 0.017027 0.01698 0.016934 0.016887 0.01684 0.016794 0.016747 0.0167 0.016654 0.016607 0.01656 0.016514 0.016467 0.01642 0.016374 0.016327 0.016281 0.016234 0.016187 0.016141 0.016094 0.016047 0.016001 0.015954 0.015907 0.015861 0.015814 0.015767 0.015721 0.015674 0.015627 0.015581 0.015534 0.015487 0.015441 0.015394 0.015348 0.015301 0.015254 0.015208 0.015161 0.015114 0.015068 0.015021 0.014974 0.014928 0.014881 0.014834 0.014788 0.014741 0.014694 0.014648 0.014601 0.014555 0.014508 0.014461 0.014415 0.014368 0.014321 0.014275 0.014228 0.014181 0.014135 0.014088 0.014041 0.013995 0.013948 0.013901 0.013855 0.013808 0.013761 0.013715 0.013668 0.013622 0.013575 0.013528 0.013482 0.013435 0.013388 0.013342 0.013295 0.013248 0.013202 0.013155 0.013108 0.013062 0.013015 0.012968 0.012922 0.012875 0.012828 0.012782 0.012735 0.012689 0.012642 0.012595 0.012549 0.012502 0.012455 0.012409 0.012362 0.012315 0.012269 0.012222 0.012175 0.012129 0.012082 0.012035 0.011989 0.011942 0.011896 0.011849 0.011802 0.011756 0.011709 0.011662 0.011616 0.011569 0.011522 0.011476 0.011429 0.011382 0.011336 0.011289 0.011242 0.011196 0.011149 0.011102 0.011056 0.011009 0.010963 0.010916 0.010869 0.010823 0.010776 0.010729 0.010683 0.010636 0.010589 0.010543 0.010496 0.010449 0.010403 0.010356 0.010309 0.010263 0.010216 0.010169 0.010123 0.010076 0.01003 0.0099829 0.0099362 0.0098896 0.0098429 0.0097963 0.0097497 0.009703 0.0096564 0.0096097 0.0095631 0.0095164 0.0094698 0.0094231 0.0093765 0.0093298 0.0092832 0.0092365 0.0091899 0.0091432 0.0090966 0.0090499 0.0090033 0.0089566 0.00891 0.0088633 0.0088167 0.00877 0.0087234 0.0086767 0.0086301 0.0085834 0.0085368 0.0084901 0.0084435 0.0083968 0.0083502 0.0083035 0.0082569 0.0082102 0.0081636 0.0081169 0.0080703 0.0080236 0.007977 0.0079303 0.0078837 0.007837 0.0077904 0.0077437 0.0076971 0.0076504 0.0076038 0.0075571 0.0075105 0.0074638 0.0074172 0.0073705 0.0073239 0.0072773 0.0072306 0.007184 0.0071373 0.0070907 0.007044 0.0069974 0.0069507 0.0069041 0.0068574 0.0068108 0.0067641 0.0067175 0.0066708 0.0066242 0.0065775 0.0065309 0.0064842 0.0064376 0.0063909 0.0063443 0.0062976 0.006251 0.0062043 0.0061577 0.006111 0.0060644 0.0060177 